-233.73,44
-232.02,-20
-230.31,-165
-228.6,-152
-226.89,-82
-225.18,-34
-223.47,-50
-221.76,14
-220.06,-36
-218.35,70
-216.64,-69
-214.93,-75
-213.22,-54
-211.52,-24
-209.81,-40
-208.1,46
-206.4,38
-204.69,10
-202.98,54
-201.28,-103
-199.57,67
-197.87,18
-196.16,0
-194.46,-30
-192.75,-55
-191.05,76
-189.35,-62
-187.64,-7
-185.94,-62
-184.24,20
-182.54,-66
-180.84,-124
-179.13,115
-177.43,-5
-175.73,56
-174.03,-79
-172.33,31
-170.63,100
-168.93,38
-167.23,-82
-165.53,-84
-163.83,5
-162.14,13
-160.44,-16
-158.74,23
-157.04,-69
-155.35,9
-153.65,0
-151.95,-108
-150.26,82
-148.56,-22
-146.86,-30
-145.17,-59
-143.47,-26
-141.78,33
-140.08,147
-138.39,64
-136.7,26
-135,-60
-133.31,-108
-131.62,-89
-129.92,-29
-128.23,28
-126.54,31
-124.85,-11
-123.15,68
-121.46,-122
-119.77,-64
-118.08,93
-116.39,-19
-114.7,-1
-113.01,-19
-111.32,-62
-109.63,-2
-107.95,21
-106.26,-36
-104.57,-81
-102.88,-46
-101.19,-58
-99.51,11
-97.82,51
-96.13,-52
-94.45,-39
-92.76,-89
-91.07,0
-89.39,-10
-87.7,70
-86.02,-4
-84.33,17
-82.65,-21
-80.97,-59
-79.28,59
-77.6,-15
-75.92,-10
-74.23,-89
-72.55,-75
-70.87,14
-69.19,-78
-67.5,-39
-65.82,55
-64.14,54
-62.46,12
-60.78,-71
-59.1,54
-57.42,60
-55.74,4
-54.06,-72
-52.38,137
-50.71,69
-49.03,-84
-47.35,21
-45.67,-47
-43.99,15
-42.32,136
-40.64,-14
-38.96,-23
-37.29,-24
-35.61,-14
-33.94,32
-32.26,-63
-30.59,66
-28.91,-49
-27.24,20
-25.56,61
-23.89,-20
-22.22,-84
-20.54,-24
-18.87,69
-17.2,94
-15.53,-81
-13.85,-27
-12.18,68
-10.51,-34
-8.84,6
-7.17,3
-5.5,-41
-3.83,-45
-2.16,82
-0.49,60
1.18,-80
2.85,-39
4.52,-95
6.19,32
7.86,-21
9.52,21
11.19,-75
12.86,17
14.53,-12
16.19,179
17.86,-5
19.52,66
21.19,1
22.86,-108
24.52,46
26.19,19
27.85,21
29.51,31
31.18,-57
32.84,-17
34.51,-7
36.17,21
37.83,-27
39.49,27
41.16,-13
42.82,28
44.48,34
46.14,-24
47.8,-119
49.46,0
51.12,35
52.78,-22
54.44,14
56.1,18
57.76,84
59.42,-53
61.08,16
62.74,34
64.4,53
66.05,39
67.71,150
69.37,-76
71.03,18
72.68,18
74.34,6
76,2
77.65,56
79.31,11
80.96,25
82.62,159
84.27,-5
85.93,146
87.58,-13
89.23,-33
90.89,46
92.54,47
94.19,-30
95.85,-23
97.5,-6
99.15,-6
100.8,-18
102.45,-31
104.1,116
105.75,55
107.41,-143
109.06,60
110.71,66
112.36,16
114,90
115.65,45
117.3,107
118.95,1
120.6,8
122.25,21
123.89,-32
125.54,62
127.19,-52
128.84,18
130.48,11
132.13,29
133.77,53
135.42,48
137.06,-5
138.71,-37
140.35,-66
142,-119
143.64,-46
145.29,-12
146.93,-33
148.57,-3
150.22,-22
151.86,81
153.5,11
155.14,25
156.79,-35
158.43,48
160.07,69
161.71,-10
163.35,-43
164.99,74
166.63,11
168.27,5
169.91,89
171.55,59
173.19,20
174.83,14
176.46,-62
178.1,68
179.74,-25
181.38,22
183.02,12
184.65,13
186.29,-78
187.92,-104
189.56,16
191.2,-93
192.83,34
194.47,-75
196.1,26
197.74,73
199.37,-61
201.01,49
202.64,23
204.27,-18
205.91,53
207.54,-66
209.17,-65
210.8,-17
212.44,1
214.07,-40
215.7,-15
217.33,-8
218.96,40
220.59,-104
222.22,36
223.85,0
225.48,-9
227.11,-47
228.74,66
230.37,-49
232,7
233.63,-47
235.25,-64
236.88,-75
238.51,-28
240.14,-49
241.76,-30
243.39,-21
245.02,67
246.64,80
248.27,-75
249.89,-5
251.52,-22
253.14,69
254.77,20
256.39,-53
258.02,12
259.64,12
261.26,5
262.89,85
264.51,-34
266.13,74
267.75,8
269.38,-49
271,73
272.62,-22
274.24,-65
275.86,-7
277.48,-7
279.1,-19
280.72,-6
282.34,26
283.96,34
285.58,58
287.2,74
288.82,46
290.44,-17
292.05,-31
293.67,-3
295.29,88
296.91,18
298.52,-23
300.14,26
301.76,-75
303.37,-149
304.99,-99
306.6,-71
308.22,-82
309.83,-30
311.45,-38
313.06,63
314.68,36
316.29,-31
317.9,39
319.52,-17
321.13,8
322.74,-116
324.36,-52
325.97,27
327.58,13
329.19,9
330.8,47
332.41,-57
334.02,44
335.63,-2
337.24,3
338.85,76
340.46,39
342.07,-10
343.68,-5
345.29,25
346.9,21
348.51,-25
350.12,-38
351.72,1
353.33,-44
354.94,-51
356.54,-71
358.15,49
359.76,37
361.36,-13
362.97,-85
364.57,71
366.18,38
367.78,96
369.39,33
370.99,9
372.6,-54
374.2,-8
375.8,-91
377.41,-109
379.01,-123
380.61,-100
382.22,29
383.82,50
385.42,55
387.02,70
388.62,-9
390.22,-1
391.82,30
393.42,37
395.02,-40
396.62,48
398.22,18
399.82,-36
401.42,-45
403.02,25
404.62,44
406.22,-67
407.81,42
409.41,-13
411.01,24
412.61,27
414.2,-37
415.8,95
417.4,-86
418.99,-91
420.59,-23
422.18,-23
423.78,15
425.37,8
426.97,-24
428.56,6
430.16,59
431.75,-2
433.34,-29
434.94,56
436.53,41
438.12,-49
439.71,-40
441.31,20
442.9,39
444.49,81
446.08,-75
447.67,105
449.26,-48
450.85,-21
452.44,-23
454.03,14
455.62,-72
457.21,-77
458.8,78
460.39,-11
461.98,-55
463.57,-7
465.15,-73
466.74,-26
468.33,-39
469.92,5
471.5,-21
473.09,-122
474.68,-120
476.26,39
477.85,-36
479.43,-31
481.02,-77
482.6,-42
484.19,21
485.77,58
487.36,-4
488.94,-62
490.52,37
492.11,10
493.69,28
495.27,47
496.85,-58
498.44,-113
500.02,32
501.6,-49
503.18,-130
504.76,-32
506.34,-83
507.92,-27
509.5,-41
511.08,-170
512.66,-70
514.24,87
515.82,20
517.4,74
518.98,48
520.56,9
522.14,102
523.71,-29
525.29,23
526.87,-18
528.45,54
530.02,12
531.6,-8
533.18,15
534.75,5
536.33,61
537.9,103
539.48,-124
541.05,24
542.63,-27
544.2,-3
545.77,41
547.35,89
548.92,38
550.5,94
552.07,0
553.64,-5
555.21,69
556.79,-4
558.36,-5
559.93,-22
561.5,-4
563.07,37
564.64,25
566.21,-46
567.78,-79
569.35,27
570.92,141
572.49,30
574.06,-83
575.63,-65
577.2,-62
578.77,17
580.33,31
581.9,-16
583.47,29
585.04,-87
586.6,99
588.17,35
589.74,13
591.3,16
592.87,-26
594.43,-41
596,-56
597.56,10
599.13,-1
600.69,14
602.26,-78
603.82,-2
605.39,43
606.95,1
608.51,-84
610.08,-80
611.64,-48
613.2,-36
614.76,-84
616.32,-42
617.89,34
619.45,82
621.01,-21
622.57,30
624.13,44
625.69,-71
627.25,7
628.81,40
630.37,76
631.93,-16
633.49,18
635.05,-166
636.6,-4
638.16,17
639.72,45
641.28,-19
642.83,-26
644.39,-15
645.95,-41
647.5,20
649.06,-64
650.62,-6
652.17,94
653.73,-46
655.28,41
656.84,16
658.39,-70
659.95,24
661.5,1
663.05,-64
664.61,91
666.16,9
667.71,66
669.27,-26
670.82,-44
672.37,1
673.92,-37
675.48,-13
677.03,97
678.58,2
680.13,26
681.68,-22
683.23,-25
684.78,-69
686.33,-94
687.88,26
689.43,13
690.98,6
692.53,-32
694.08,-129
695.62,-85
697.17,22
698.72,25
700.27,-50
701.81,50
703.36,-49
704.91,-91
706.45,51
708,99
709.55,15
711.09,4
712.64,-93
714.18,-51
715.73,19
717.27,-5
718.82,17
720.36,-24
721.9,75
723.45,38
724.99,-12
726.53,-10
728.08,10
729.62,21
731.16,-46
732.7,-26
734.24,23
735.78,-40
737.33,26
738.87,5
740.41,-17
741.95,-4
743.49,-14
745.03,-25
746.57,96
748.11,50
749.65,-21
751.18,-8
752.72,60
754.26,83
755.8,104
757.34,51
758.87,-8
760.41,19
761.95,4
763.48,-111
765.02,16
766.56,-36
768.09,-84
769.63,26
771.16,-4
772.7,50
774.23,-1
775.77,-62
777.3,91
778.84,18
780.37,40
781.9,-44
783.44,4
784.97,8
786.5,34
788.04,-24
789.57,-8
791.1,-37
792.63,-101
794.16,63
795.69,39
797.21,-19
798.73,-53
800.25,28
801.76,-17
803.28,42
804.8,-16
806.32,-50
807.83,-41
809.35,22
810.86,-55
812.38,83
813.89,-38
815.41,47
816.92,-14
818.44,-8
819.95,10
821.47,-36
822.98,48
824.49,-47
826.01,43
827.52,-9
829.03,-40
830.55,-120
832.06,28
833.57,47
835.08,-36
836.59,103
838.1,64
839.62,-29
841.13,51
842.64,-70
844.15,53
845.66,-28
847.17,-28
848.68,98
850.18,-65
851.69,38
853.2,-3
854.71,-6
856.22,-24
857.73,-5
859.23,-29
860.74,7
862.25,13
863.76,29
865.26,-57
866.77,-85
868.28,16
869.78,-33
871.29,-33
872.79,9
874.3,-112
875.8,106
877.31,6
878.81,55
880.32,50
881.82,63
883.32,91
884.83,-54
886.33,-25
887.83,3
889.33,30
890.84,16
892.34,15
893.84,-109
895.34,-74
896.84,-40
898.34,-28
899.85,34
901.35,33
902.85,-14
904.35,24
905.85,-23
907.35,55
908.85,21
910.34,-5
911.84,31
913.34,12
914.84,41
916.34,24
917.84,-56
919.33,46
920.83,-14
922.33,-4
923.82,-55
925.32,30
926.82,9
928.31,-54
929.81,-23
931.31,3
932.8,16
934.3,-9
935.79,10
937.28,30
938.78,-146
940.27,27
941.77,-19
943.26,-14
944.75,8
946.25,-7
947.74,48
949.23,15
950.72,24
952.22,-35
953.71,22
955.2,-12
956.69,-19
958.18,-12
959.67,1
961.16,9
962.65,-51
964.14,6
965.63,26
967.12,26
968.61,27
970.1,58
971.59,71
973.08,-93
974.57,111
976.06,-4
977.54,19
979.03,-28
980.52,-34
982.01,47
983.49,13
984.98,-69
986.47,39
987.95,20
989.44,-8
990.92,-34
992.41,-87
993.89,4
995.38,1
996.86,-41
998.35,49
999.83,-69
1001.32,-19
1002.83,100
1004.35,29
1005.87,68
1007.39,-11
1008.91,61
1010.43,-50
1011.95,11
1013.47,-2
1014.98,-30
1016.5,17
1018.02,-49
1019.53,-58
1021.05,89
1022.57,-9
1024.08,91
1025.6,-15
1027.11,-20
1028.63,29
1030.14,-34
1031.66,1
1033.14,-22
1034.62,28
1036.09,-29
1037.57,42
1039.05,-19
1040.53,-25
1042,-42
1043.48,-74
1044.96,102
1046.43,-25
1047.91,-24
1049.39,58
1050.86,125
1052.34,20
1053.81,28
1055.29,-30
1056.76,-37
1058.24,10
1059.71,-61
1061.18,68
1062.66,-89
1064.13,37
1065.6,-25
1067.08,-42
1068.55,-48
1070.02,8
1071.49,11
1072.97,-12
1074.44,-52
1075.91,25
1077.38,-15
1078.85,-29
1080.32,74
1081.79,-16
1083.26,6
1084.73,56
1086.2,-14
1087.67,-87
1089.14,-21
1090.61,-10
1092.08,15
1093.55,21
1095.02,83
1096.48,-14
1097.95,25
1099.42,31
1100.89,-25
1102.35,-25
1103.82,-9
1105.29,-124
1106.75,4
1108.22,42
1109.69,49
1111.15,9
1112.62,57
1114.08,77
1115.55,69
1117.01,-22
1118.48,6
1119.94,11
1121.4,-17
1122.87,-56
1124.33,16
1125.79,-36
1127.26,15
1128.72,-59
1130.18,-16
1131.65,80
1133.11,69
1134.57,8
1136.03,-20
1137.49,-23
1138.95,9
1140.41,-47
1141.87,-9
1143.33,-1
1144.79,115
1146.25,-40
1147.71,-22
1149.17,21
1150.63,-25
1152.09,-6
1153.55,-1
1155.01,106
1156.47,-23
1157.92,-67
1159.38,-7
1160.84,31
1162.3,4
1163.75,3
1165.21,100
1166.67,0
1168.12,-40
1169.58,66
1171.03,11
1172.49,-31
1173.94,-58
1175.4,2
1176.85,30
1178.31,-1
1179.76,11
1181.22,68
1182.67,-65
1184.12,-8
1185.58,-68
1187.03,-13
1188.48,39
1189.94,22
1191.39,-115
1192.84,164
1194.29,51
1195.74,56
1197.2,-101
1198.65,-84
1200.1,-5
1201.55,6
1203,-31
1204.45,17
1205.9,-64
1207.35,-39
1208.8,51
1210.25,17
1211.7,61
1213.15,22
1214.59,10
1216.04,-23
1217.49,56
1218.94,58
1220.39,97
1221.83,-2
1223.28,-8
1224.73,13
1226.17,25
1227.62,59
1229.07,57
1230.51,-17
1231.96,69
1233.4,3
1234.85,-11
1236.29,-24
1237.74,-10
1239.18,-18
1240.63,-42
1242.07,11
1243.51,60
1244.96,39
1246.4,-75
1247.84,-26
1249.29,-50
1250.73,68
1252.17,-20
1253.61,18
1255.06,-10
1256.5,60
1257.94,-7
1259.38,41
1260.82,30
1262.26,-14
1263.7,-26
1265.14,-14
1266.58,-28
1268.02,-77
1269.46,-43
1270.9,37
1272.34,102
1273.78,25
1275.22,-86
1276.66,41
1278.09,26
1279.53,-34
1280.97,11
1282.41,45
1283.84,-74
1285.28,-8
1286.72,2
1288.15,60
1289.59,37
1291.03,11
1292.46,-14
1293.9,31
1295.33,67
1296.77,8
1298.2,6
1299.64,5
1301.07,-45
1302.5,-1
1303.94,-89
1305.37,36
1306.81,-3
1308.24,49
1309.67,35
1311.1,0
1312.54,-8
1313.97,-25
1315.4,-12
1316.83,-1
1318.26,-49
1319.7,-54
1321.13,-19
1322.56,13
1323.99,46
1325.42,28
1326.85,52
1328.28,-70
1329.71,91
1331.14,-10
1332.57,-59
1334,-33
1335.42,-24
1336.85,-85
1338.28,-102
1339.71,-14
1341.14,-61
1342.56,-15
1343.99,-117
1345.42,60
1346.84,-8
1348.27,109
1349.7,28
1351.12,18
1352.55,-8
1353.98,10
1355.4,-8
1356.83,39
1358.25,53
1359.68,-40
1361.1,85
1362.52,74
1363.95,39
1365.37,-56
1366.8,-6
1368.22,-12
1369.64,-91
1371.06,-2
1372.49,28
1373.91,-17
1375.33,29
1376.75,-65
1378.18,-31
1379.6,22
1381.02,68
1382.44,-14
1383.86,-105
1385.28,-26
1386.7,-38
1388.12,105
1389.54,67
1390.96,100
1392.38,18
1393.8,19
1395.22,-99
1396.64,-23
1398.06,-20
1399.47,1
1400.89,-51
1402.31,64
1403.73,-60
1405.14,-60
1406.56,-75
1407.98,55
1409.39,-30
1410.81,-65
1412.23,-65
1413.64,-15
1415.06,-59
1416.47,-26
1417.89,24
1419.3,40
1420.72,53
1422.13,30
1423.55,-25
1424.96,4
1426.38,35
1427.79,51
1429.2,-115
1430.62,-4
1432.03,18
1433.44,-32
1434.85,87
1436.27,-1
1437.68,37
1439.09,41
1440.5,14
1441.91,16
1443.32,96
1444.73,3
1446.15,8
1447.56,-43
1448.97,1
1450.38,-1
1451.74,-1
1453.11,2
1454.47,-7
1455.84,-27
1457.2,-11
1458.57,26
1459.93,9
1461.3,35
1462.66,-21
1464.03,31
1465.39,3
1466.75,-49
1468.12,51
1469.48,22
1470.84,-25
1472.21,43
1473.57,-11
1474.93,-29
1476.29,-84
1477.65,13
1479.02,-18
1480.38,13
1481.74,10
1483.1,-33
1484.46,-48
1485.82,58
1487.18,-17
1488.54,9
1489.9,-30
1491.26,38
1492.62,27
1493.98,128
1495.34,0
1496.7,-20
1498.06,28
1499.42,-3
1500.77,16
1502.13,-72
1503.49,39
1504.85,110
1506.2,-5
1507.56,-34
1508.92,-71
1510.28,5
1511.63,-33
1512.99,-15
1514.34,59
1515.7,-52
1517.06,2
1518.41,31
1519.77,36
1521.12,13
1522.48,-4
1523.83,18
1525.19,42
1526.54,107
1527.89,12
1529.25,1
1530.6,-136
1531.95,-64
1533.31,-34
1534.66,66
1536.01,3
1537.37,19
1538.72,1
1540.07,84
1541.42,127
1542.77,-2
1544.13,-36
1545.48,-45
1546.83,9
1548.18,-78
1549.53,16
1550.88,-15
1552.23,69
1553.58,82
1554.93,87
1556.28,45
1557.63,-22
1558.98,-21
1560.33,119
1561.68,-16
1563.02,-1
1564.37,-14
1565.72,55
1567.07,-55
1568.42,25
1569.76,13
1571.11,-94
1572.46,-71
1573.8,-44
1575.15,14
1576.5,-43
1577.84,-54
1579.19,53
1580.53,74
1581.88,-55
1583.23,6
1584.58,8
1585.93,-36
1587.29,8
1588.64,-32
1589.99,-48
1591.35,14
1592.7,-8
1594.05,-13
1595.41,37
1596.76,44
1598.11,-7
1599.46,8
1600.81,17
1602.17,-28
1603.52,93
1604.88,-8
1606.24,18
1607.59,78
1608.95,89
1610.31,45
1611.66,27
1613.02,-25
1614.38,46
1615.73,-31
1617.09,18
1618.44,-20
1619.8,-20
1621.15,-2
1622.51,28
1623.86,-7
1625.22,-17
1626.57,72
1627.92,-34
1629.28,-37
1630.63,31
1631.98,13
1633.34,-49
1634.69,9
1636.04,42
1637.39,-49
1638.75,1
1640.1,-95
1641.45,33
1642.8,-48
1644.15,35
1645.5,-50
1646.85,1
1648.2,-66
1649.56,15
1650.91,16
1652.26,-52
1653.6,-65
1654.95,-87
1656.3,-96
1657.65,3
1659,-14
1660.35,-27
1661.7,15
1663.05,-40
1664.4,-28
1665.74,-3
1667.09,-10
1668.44,2
1669.79,13
1671.13,70
1672.48,-13
1673.83,0
1675.17,-77
1676.52,51
1677.86,39
1679.21,37
1680.56,37
1681.9,14
1683.25,60
1684.59,9
1685.93,28
1687.28,90
1688.62,209
1689.97,271
1691.31,366
1692.66,550
1694,1003
1695.34,1560
1696.68,2154
1698.03,2414
1699.37,2428
1700.71,2092
1702.05,1575
1703.4,1067
1704.74,709
1706.08,502
1707.42,337
1708.76,332
1710.1,204
1711.44,281
1712.78,117
1714.12,156
1715.46,42
1716.8,30
1718.14,-26
1719.48,91
1720.82,52
1722.16,37
1723.5,52
1724.84,70
1726.18,20
1727.51,-15
1728.85,-28
1730.19,-6
1731.53,53
1732.86,-109
1734.2,55
1735.54,15
1736.88,8
1738.21,-57
1739.55,2
1740.88,-46
1742.22,31
1743.56,68
1744.89,-13
1746.23,25
1747.56,42
1748.9,77
1750.23,6
1751.56,-59
1752.9,31
1754.23,-2
1755.57,-35
1756.9,-59
1758.23,78
1759.57,38
1760.9,-4
1762.23,5
1763.56,-23
1764.9,-16
1766.23,-27
1767.56,12
1768.89,-55
1770.22,34
1771.56,34
1772.89,30
1774.22,167
1775.55,282
1776.88,394
1778.21,702
1779.54,1185
1780.87,1589
1782.2,2018
1783.53,2228
1784.86,1962
1786.18,1642
1787.51,1212
1788.84,811
1790.17,453
1791.5,381
1792.83,347
1794.15,320
1795.48,224
1796.81,241
1798.14,131
1799.46,135
1800.79,66
1802.12,53
1803.44,25
1804.77,-12
1806.09,28
1807.42,37
1808.75,67
1810.07,31
1811.4,-32
1812.72,47
1814.04,49
1815.37,-16
1816.69,8
1818.02,-17
1819.34,-37
1820.66,-49
1821.99,-2
1823.31,-5
1824.63,17
1825.96,2
1827.28,17
1828.6,-113
1829.92,33
1831.25,-34
1832.57,-2
1833.89,-78
1835.21,3
1836.53,4
1837.85,57
1839.17,25
1840.49,29
1841.81,38
1843.13,12
1844.45,44
1845.77,103
1847.09,70
1848.41,27
1849.73,-9
1851.05,95
1852.37,58
1853.69,88
1855,0
1856.32,42
1857.64,-96
1858.96,-21
1860.28,11
1861.59,85
1862.91,-33
1864.23,-11
1865.54,62
1866.86,-21
1868.18,-32
1869.49,17
1870.81,41
1872.12,-37
1873.44,73
1874.75,51
1876.07,102
1877.38,-49
1878.7,-56
1880.01,-23
1881.33,-1
1882.64,25
1883.95,-27
1885.27,-8
1886.58,0
1887.89,25
1889.21,33
1890.52,103
1891.83,36
1893.14,6
1894.46,43
1895.77,72
1897.08,-25
1898.39,51
1899.7,-16
1901.01,101
1902.32,-12
1903.63,42
1904.94,47
1906.26,28
1907.57,7
1908.87,-7
1910.18,90
1911.49,29
1912.8,54
1914.11,5
1915.42,85
1916.73,-40
1918.04,63
1919.35,-41
1920.65,89
1921.96,-9
1923.27,22
1924.58,8
1925.88,-47
1927.19,-44
1928.5,56
1929.8,46
1931.11,3
1932.42,-18
1933.72,22
1935.03,24
1936.33,45
1937.64,-6
1938.95,-42
1940.25,94
1941.55,49
1942.86,-131
1944.16,92
1945.47,50
1946.77,66
1948.08,54
1949.38,49
1950.68,218
1951.99,115
1953.29,125
1954.59,308
1955.89,566
1957.2,1016
1958.5,1535
1959.8,2371
1961.1,2738
1962.4,3076
1963.71,2949
1965.01,2657
1966.31,2092
1967.61,1414
1968.91,975
1970.21,647
1971.51,575
1972.81,426
1974.11,433
1975.41,359
1976.71,142
1978.01,121
1979.31,88
1980.6,85
1981.9,136
1983.2,130
1984.5,91
1985.8,-17
1987.09,17
1988.39,23
1989.69,34
1990.99,91
1992.28,28
1993.58,11
1994.88,60
1996.17,-31
1997.47,52
1998.77,91
2000.06,-25
2001.36,17
2002.65,-32
2003.95,12
2005.24,8
2006.54,30
2007.83,53
2009.13,-29
2010.42,13
2011.71,10
2013.01,-56
2014.3,119
2015.59,19
2016.89,112
2018.18,15
2019.47,12
2020.77,73
2022.06,35
2023.35,-29
2024.64,-13
2025.93,-31
2027.23,-13
2028.52,28
2029.81,19
2031.1,-71
2032.39,-17
2033.68,-7
2034.97,86
2036.26,21
2037.55,11
2038.84,5
2040.13,65
2041.42,105
2042.71,154
2044,199
2045.29,428
2046.57,670
2047.86,773
2049.15,801
2050.44,792
2051.73,661
2053.01,472
2054.3,294
2055.59,174
2056.88,165
2058.16,200
2059.45,68
2060.74,73
2062.02,120
2063.31,67
2064.59,14
2065.88,-68
2067.16,59
2068.45,2
2069.73,-52
2071.02,-73
2072.3,40
2073.59,123
2074.87,-56
2076.16,-78
2077.44,95
2078.72,-54
2080.01,-10
2081.29,-45
2082.57,26
2083.86,-47
2085.14,67
2086.42,34
2087.7,14
2088.99,0
2090.27,0
2091.55,33
2092.83,-29
2094.11,68
2095.39,24
2096.67,40
2097.95,-76
2099.24,-28
2100.52,54
2101.8,-51
2103.08,-39
2104.36,54
2105.63,-30
2106.91,34
2108.19,0
2109.47,32
2110.75,0
2112.03,5
2113.31,-4
2114.59,8
2115.86,71
2117.14,15
2118.42,10
2119.7,47
2120.97,15
2122.25,0
2123.53,53
2124.8,13
2126.08,-44
2127.36,4
2128.63,6
2129.91,-27
2131.18,-3
2132.46,32
2133.73,53
2135.01,67
2136.28,98
2137.56,-22
2138.83,46
2140.11,63
2141.38,-68
2142.65,-32
2143.93,36
2145.2,11
2146.47,-18
2147.75,14
2149.02,-30
2150.29,-38
2151.57,-78
2152.84,64
2154.11,-56
2155.38,-3
2156.65,97
2157.93,-87
2159.2,61
2160.47,-18
2161.74,26
2163.01,74
2164.28,42
2165.55,29
2166.82,55
2168.09,17
2169.36,22
2170.63,38
2171.9,69
2173.17,-13
2174.44,78
2175.71,-2
2176.97,79
2178.24,0
2179.51,36
2180.78,-46
2182.05,6
2183.31,-25
2184.58,-1
2185.85,81
2187.12,4
2188.38,67
2189.65,-43
2190.92,91
2192.18,156
2193.45,277
2194.71,353
2195.98,513
2197.24,829
2198.51,1051
2199.78,1266
2201.04,1171
2202.3,1024
2203.57,799
2204.83,606
2206.1,410
2207.36,290
2208.63,133
2209.89,94
2211.15,81
2212.42,105
2213.68,49
2214.94,23
2216.2,58
2217.47,54
2218.73,-65
2219.99,-39
2221.25,-20
2222.51,36
2223.78,-25
2225.04,-8
2226.3,28
2227.56,37
2228.82,-10
2230.08,-27
2231.34,31
2232.6,3
2233.86,-6
2235.12,79
2236.38,25
2237.64,64
2238.9,1
2240.16,-30
2241.42,27
2242.67,0
2243.93,-19
2245.19,77
2246.45,4
2247.71,13
2248.96,-30
2250.22,-19
2251.48,74
2252.74,12
2253.99,-16
2255.25,30
2256.51,-22
2257.76,47
2259.02,34
2260.27,-35
2261.53,59
2262.78,4
2264.04,-10
2265.3,-74
2266.55,132
2267.8,33
2269.06,37
2270.31,27
2271.57,45
2272.82,60
2274.08,0
2275.33,12
2276.58,-35
2277.84,45
2279.09,59
2280.34,54
2281.59,45
2282.85,-8
2284.1,14
2285.35,-29
2286.6,48
2287.85,-29
2289.11,14
2290.36,58
2291.61,67
2292.86,11
2294.11,52
2295.36,-5
2296.61,61
2297.86,-35
2299.11,-34
2300.36,43
2301.61,69
2302.86,21
2304.11,-93
2305.36,-37
2306.61,-21
2307.86,37
2309.1,72
2310.35,19
2311.6,72
2312.85,124
2314.1,344
2315.34,509
2316.59,943
2317.84,1542
2319.09,2244
2320.33,2651
2321.58,2842
2322.83,2534
2324.07,2210
2325.32,1659
2326.56,1215
2327.81,842
2329.05,668
2330.3,453
2331.55,382
2332.79,338
2334.03,288
2335.28,214
2336.52,167
2337.77,144
2339.01,63
2340.26,100
2341.5,15
2342.74,135
2343.99,-3
2345.23,50
2346.47,65
2347.71,28
2348.96,24
2350.2,38
2351.44,1
2352.68,51
2353.92,3
2355.17,-60
2356.41,-9
2357.65,40
2358.89,8
2360.13,70
2361.37,47
2362.61,92
2363.85,9
2365.09,20
2366.33,97
2367.57,133
2368.81,115
2370.05,156
2371.29,147
2372.53,321
2373.77,548
2375,1081
2376.24,2006
2377.48,2921
2378.72,4309
2379.96,5169
2381.19,5403
2382.43,4641
2383.67,3678
2384.91,2821
2386.14,1848
2387.38,1281
2388.62,857
2389.85,716
2391.09,787
2392.32,653
2393.56,419
2394.8,310
2396.03,233
2397.27,245
2398.5,102
2399.74,66
2400.97,128
2402.2,44
2403.44,61
2404.67,-49
2405.91,-26
2407.14,-3
2408.37,36
2409.61,84
2410.84,-31
2412.07,70
2413.31,47
2414.54,77
2415.77,30
2417,28
2418.24,36
2419.47,-24
2420.7,-25
2421.93,31
2423.16,50
2424.39,-28
2425.62,52
2426.85,-25
2428.08,-17
2429.31,50
2430.55,43
2431.78,-19
2433,-6
2434.23,2
2435.46,-63
2436.69,22
2437.92,72
2439.15,14
2440.38,11
2441.61,-4
2442.84,-4
2444.06,-39
2445.29,23
2446.52,10
2447.75,-31
2448.98,117
2450.2,-2
2451.43,-19
2452.66,29
2453.88,63
2455.11,57
2456.34,-2
2457.56,-80
2458.79,-12
2460.01,12
2461.24,19
2462.46,72
2463.69,152
2464.91,78
2466.14,169
2467.36,167
2468.59,176
2469.81,142
2471.04,148
2472.26,211
2473.48,2
2474.71,38
2475.93,64
2477.15,108
2478.38,28
2479.6,32
2480.82,-21
2482.05,20
2483.27,51
2484.49,63
2485.71,-29
2486.93,42
2488.15,63
2489.38,64
2490.6,-24
2491.82,39
2493.04,129
2494.26,9
2495.48,166
2496.7,283
2497.92,489
2499.14,891
2500.36,1664
2501.58,2962
2502.8,4953
2504.02,7466
2505.24,9530
2506.46,10632
2507.67,10411
2508.89,9132
2510.11,7303
2511.33,5282
2512.55,3535
2513.76,2179
2514.98,1800
2516.2,1537
2517.42,1350
2518.63,1002
2519.85,655
2521.07,525
2522.28,379
2523.5,302
2524.71,156
2525.93,107
2527.15,119
2528.36,71
2529.58,76
2530.79,102
2532.01,64
2533.22,27
2534.44,33
2535.65,58
2536.86,25
2538.08,-1
2539.29,55
2540.51,78
2541.72,-2
2542.93,44
2544.15,-45
2545.36,94
2546.57,114
2547.78,81
2549,111
2550.21,61
2551.42,97
2552.63,120
2553.85,225
2555.06,523
2556.27,849
2557.48,1357
2558.69,1981
2559.9,2541
2561.11,2939
2562.32,2950
2563.53,2450
2564.74,1960
2565.95,1347
2567.16,1049
2568.37,735
2569.58,481
2570.79,411
2572,348
2573.21,322
2574.42,252
2575.62,119
2576.83,83
2578.04,118
2579.25,59
2580.46,94
2581.66,86
2582.87,29
2584.08,28
2585.29,-28
2586.49,30
2587.7,18
2588.91,-17
2590.11,11
2591.32,49
2592.52,41
2593.73,103
2594.93,57
2596.14,-6
2597.35,28
2598.55,23
2599.76,121
2600.96,41
2602.16,71
2603.37,35
2604.57,50
2605.78,106
2606.98,103
2608.18,32
2609.39,42
2610.59,82
2611.79,86
2613,77
2614.2,-14
2615.4,21
2616.6,7
2617.81,99
2619.01,72
2620.21,60
2621.41,28
2622.61,-5
2623.81,-27
2625.02,-16
2626.22,63
2627.42,51
2628.62,26
2629.82,10
2631.02,47
2632.22,-17
2633.42,156
2634.62,58
2635.82,68
2637.02,87
2638.22,2
2639.41,-9
2640.61,-112
2641.81,25
2643.01,0
2644.21,33
2645.41,-57
2646.6,55
2647.8,19
2649,33
2650.2,37
2651.39,-24
2652.59,82
2653.79,58
2654.99,10
2656.18,77
2657.38,30
2658.57,11
2659.77,-42
2660.97,47
2662.16,5
2663.36,15
2664.55,24
2665.75,-31
2666.94,5
2668.14,15
2669.33,-47
2670.53,59
2671.72,-2
2672.91,-19
2674.11,14
2675.3,66
2676.49,14
2677.69,25
2678.88,29
2680.07,19
2681.27,46
2682.46,-27
2683.65,64
2684.84,-19
2686.04,35
2687.23,-37
2688.42,46
2689.61,1
2690.8,89
2691.99,134
2693.18,52
2694.37,149
2695.57,252
2696.76,490
2697.95,713
2699.14,1262
2700.33,1933
2701.52,2444
2702.71,2763
2703.89,2847
2705.08,2527
2706.27,1913
2707.46,1297
2708.65,908
2709.84,613
2711.03,577
2712.22,332
2713.4,321
2714.59,239
2715.78,88
2716.97,142
2718.15,108
2719.34,-49
2720.53,-36
2721.71,18
2722.9,2
2724.09,-18
2725.27,86
2726.46,23
2727.65,5
2728.83,-37
2730.02,10
2731.2,-69
2732.39,-64
2733.57,-4
2734.76,-17
2735.94,-62
2737.13,-70
2738.31,-20
2739.5,14
2740.68,4
2741.86,60
2743.05,27
2744.23,29
2745.41,1
2746.6,14
2747.78,38
2748.96,71
2750.14,10
2751.33,-108
2752.51,27
2753.69,-47
2754.87,39
2756.05,-51
2757.24,36
2758.42,-59
2759.6,26
2760.78,-12
2761.96,-18
2763.14,-58
2764.32,-83
2765.5,4
2766.68,30
2767.86,56
2769.04,19
2770.22,7
2771.4,33
2772.58,-51
2773.76,11
2774.94,-58
2776.12,4
2777.3,-2
2778.47,-20
2779.65,89
2780.83,91
2782.01,-48
2783.19,-85
2784.36,18
2785.54,29
2786.72,68
2787.9,7
2789.07,92
2790.25,25
2791.43,94
2792.6,160
2793.78,63
2794.95,-85
2796.13,-63
2797.3,-73
2798.48,-24
2799.66,46
2800.83,-33
2802.01,-5
2803.18,97
2804.36,-14
2805.53,63
2806.7,73
2807.88,24
2809.05,-6
2810.23,-3
2811.4,87
2812.57,-19
2813.75,-7
2814.92,3
2816.09,-21
2817.26,-39
2818.44,72
2819.61,84
2820.78,177
2821.95,213
2823.13,366
2824.3,625
2825.47,1197
2826.64,2066
2827.81,3157
2828.98,4473
2830.15,5117
2831.32,5584
2832.49,4818
2833.66,3718
2834.83,2657
2836,1828
2837.17,1289
2838.34,943
2839.51,812
2840.68,656
2841.85,570
2843.02,404
2844.19,193
2845.36,169
2846.53,196
2847.69,87
2848.86,70
2850.03,2
2851.2,-6
2852.37,80
2853.5,16
2854.64,26
2855.78,37
2856.92,-3
2858.05,-71
2859.19,-83
2860.33,-15
2861.47,78
2862.6,-11
2863.74,106
2864.88,8
2866.01,-19
2867.15,97
2868.28,36
2869.42,73
2870.56,31
2871.69,-12
2872.83,32
2873.96,71
2875.1,58
2876.23,91
2877.37,14
2878.5,34
2879.64,124
2880.77,41
2881.91,69
2883.04,29
2884.17,-40
2885.31,-10
2886.44,97
2887.57,16
2888.71,35
2889.84,6
2890.97,50
2892.11,63
2893.24,-20
2894.37,40
2895.5,96
2896.63,0
2897.77,-1
2898.9,24
2900.03,42
2901.16,-19
2902.29,33
2903.42,44
2904.55,-21
2905.69,31
2906.83,9
2907.96,-35
2909.1,85
2910.24,53
2911.37,80
2912.51,-12
2913.65,-5
2914.78,5
2915.92,-14
2917.05,68
2918.19,154
2919.32,34
2920.46,249
2921.59,332
2922.73,515
2923.86,920
2925,1294
2926.13,1734
2927.27,1913
2928.4,1830
2929.53,1620
2930.67,1198
2931.8,909
2932.93,582
2934.07,334
2935.2,280
2936.33,193
2937.47,349
2938.6,220
2939.73,117
2940.86,130
2941.99,51
2943.13,25
2944.26,-28
2945.39,77
2946.52,82
2947.65,-25
2948.78,35
2949.91,18
2951.05,105
2952.18,23
2953.31,36
2954.44,54
2955.57,11
2956.7,73
2957.83,-22
2958.96,56
2960.08,45
2961.21,99
2962.34,-25
2963.47,16
2964.6,-82
2965.73,33
2966.86,65
2967.99,26
2969.11,86
2970.24,14
2971.37,-15
2972.5,63
2973.63,16
2974.75,40
2975.88,84
2977.01,76
2978.13,10
2979.26,21
2980.39,-26
2981.51,29
2982.64,60
2983.77,23
2984.89,26
2986.02,11
2987.14,95
2988.27,47
2989.39,99
2990.52,88
2991.64,235
2992.77,256
2993.89,413
2995.02,775
2996.14,1377
2997.27,2243
2998.39,3762
2999.51,5113
3000.64,6293
3001.76,6452
3002.88,5722
3004.01,4507
3005.13,3458
3006.25,2425
3007.37,1685
3008.5,1255
3009.62,905
3010.74,803
3011.86,756
3012.99,515
3014.11,360
3015.23,349
3016.35,196
3017.47,99
3018.59,115
3019.71,78
3020.83,49
3021.96,34
3023.08,35
3024.2,50
3025.32,66
3026.44,-10
3027.56,37
3028.68,90
3029.79,34
3030.91,-35
3032.03,28
3033.15,-9
3034.27,-12
3035.39,44
3036.51,27
3037.63,-6
3038.74,3
3039.86,17
3040.98,19
3042.1,51
3043.22,26
3044.33,26
3045.45,96
3046.57,57
3047.68,27
3048.8,61
3049.92,4
3051.03,-47
3052.15,-51
3053.27,-36
3054.38,4
3055.5,62
3056.61,90
3057.73,61
3058.85,5
3059.96,92
3061.08,58
3062.19,42
3063.31,1
3064.42,18
3065.53,85
3066.65,72
3067.76,47
3068.88,71
3069.99,141
3071.1,79
3072.22,27
3073.33,203
3074.44,93
3075.56,152
3076.67,88
3077.78,64
3078.9,49
3080.01,101
3081.12,78
3082.23,61
3083.34,85
3084.46,30
3085.57,57
3086.68,95
3087.79,89
3088.9,72
3090.01,-5
3091.12,113
3092.23,93
3093.34,12
3094.45,61
3095.56,144
3096.67,88
3097.78,118
3098.89,70
3100,109
3101.11,75
3102.22,17
3103.33,143
3104.44,81
3105.55,162
3106.66,88
3107.77,116
3108.87,120
3109.98,262
3111.09,228
3112.2,429
3113.31,451
3114.41,878
3115.52,1848
3116.63,3371
3117.73,5453
3118.84,7468
3119.95,9241
3121.05,9900
3122.16,10143
3123.27,8842
3124.37,7869
3125.48,6169
3126.59,4011
3127.69,2786
3128.8,2054
3129.9,1657
3131.01,1455
3132.11,1209
3133.22,838
3134.32,630
3135.43,496
3136.53,353
3137.63,283
3138.74,210
3139.84,105
3140.95,120
3142.05,153
3143.15,124
3144.26,108
3145.36,155
3146.46,107
3147.57,151
3148.67,71
3149.77,90
3150.87,137
3151.97,159
3153.08,151
3154.18,200
3155.28,201
3156.38,111
3157.48,237
3158.58,311
3159.69,563
3160.79,865
3161.89,1623
3162.99,3178
3164.09,5844
3165.19,9227
3166.29,13987
3167.39,17013
3168.49,18752
3169.59,17506
3170.69,14755
3171.79,11237
3172.89,8630
3173.99,5669
3175.09,4050
3176.18,3034
3177.28,2617
3178.38,2299
3179.48,1798
3180.58,1288
3181.68,819
3182.77,624
3183.87,526
3184.97,300
3186.07,208
3187.16,223
3188.26,13
3189.36,150
3190.45,131
3191.55,1
3192.65,69
3193.74,69
3194.84,36
3195.94,135
3197.03,112
3198.13,162
3199.22,123
3200.32,96
3201.41,120
3202.51,85
3203.6,128
3204.7,137
3205.79,124
3206.89,110
3207.98,106
3209.08,59
3210.17,144
3211.26,99
3212.36,29
3213.45,30
3214.54,46
3215.64,130
3216.73,105
3217.82,96
3218.92,135
3220.01,68
3221.1,75
3222.19,158
3223.29,14
3224.38,76
3225.47,22
3226.56,182
3227.65,40
3228.74,141
3229.84,157
3230.93,94
3232.02,81
3233.11,39
3234.2,18
3235.29,59
3236.38,84
3237.47,90
3238.56,163
3239.65,5
3240.74,61
3241.83,106
3242.92,59
3244.01,107
3245.1,73
3246.19,99
3247.28,-10
3248.36,109
3249.45,32
3250.54,12
3251.63,68
3252.72,47
3253.8,59
3254.89,86
3255.98,102
3257.07,22
3258.16,68
3259.24,96
3260.33,113
3261.42,48
3262.5,136
3263.59,-33
3264.68,119
3265.76,-11
3266.85,30
3267.93,14
3269.02,47
3270.11,92
3271.19,93
3272.28,72
3273.36,17
3274.45,62
3275.53,57
3276.62,85
3277.7,81
3278.78,-22
3279.87,143
3280.95,69
3282.04,34
3283.12,70
3284.2,103
3285.29,4
3286.37,-68
3287.45,94
3288.54,111
3289.62,65
3290.7,13
3291.79,29
3292.87,26
3293.95,30
3295.03,111
3296.11,43
3297.2,-11
3298.28,73
3299.36,45
3300.44,54
3301.52,109
3302.6,45
3303.68,114
3304.76,86
3305.85,-12
3306.93,-23
3308.01,16
3309.09,138
3310.17,10
3311.25,57
3312.33,83
3313.41,19
3314.48,35
3315.56,50
3316.64,-1
3317.72,-29
3318.8,18
3319.88,-31
3320.96,111
3322.04,36
3323.11,-34
3324.19,13
3325.27,-38
3326.35,6
3327.43,44
3328.5,-67
3329.58,1
3330.66,-49
3331.74,14
3332.81,-46
3333.89,25
3334.97,-97
3336.04,-25
3337.12,63
3338.19,54
3339.27,65
3340.35,86
3341.42,24
3342.5,-68
3343.57,22
3344.65,72
3345.72,30
3346.8,-33
3347.87,64
3348.95,-26
3350.02,48
3351.1,-17
3352.17,13
3353.24,-31
3354.32,17
3355.39,67
3356.47,21
3357.54,-20
3358.61,-39
3359.68,-53
3360.76,54
3361.83,-75
3362.9,4
3363.98,47
3365.05,-46
3366.12,1
3367.19,44
3368.26,32
3369.34,30
3370.41,109
3371.48,48
3372.55,56
3373.62,-23
3374.69,-15
3375.76,-37
3376.83,35
3377.91,26
3378.98,20
3380.05,148
3381.12,-53
3382.19,40
3383.26,-24
3384.33,74
3385.4,28
3386.46,-43
3387.53,13
3388.6,59
3389.67,-17
3390.74,-35
3391.81,-42
3392.88,5
3393.95,51
3395.01,-72
3396.08,130
3397.15,-42
3398.22,-49
3399.29,45
3400.35,70
3401.42,39
3402.49,25
3403.55,3
3404.62,33
3405.69,128
3406.76,40
3407.82,43
3408.89,36
3409.95,107
3411.02,177
3412.09,327
3413.15,678
3414.22,1398
3415.28,2417
3416.35,4158
3417.41,6408
3418.48,8750
3419.54,10211
3420.61,10375
3421.67,8809
3422.74,6567
3423.8,4760
3424.86,3558
3425.93,2420
3426.99,1873
3428.06,1398
3429.12,1189
3430.18,1129
3431.25,908
3432.31,468
3433.37,309
3434.43,186
3435.5,181
3436.56,125
3437.62,121
3438.68,26
3439.75,68
3440.81,114
3441.87,61
3442.93,145
3443.99,77
3445.05,-27
3446.12,64
3447.18,89
3448.24,25
3449.3,11
3450.36,83
3451.42,8
3452.48,85
3453.54,78
3454.6,38
3455.66,-17
3456.72,-8
3457.78,122
3458.84,131
3459.9,54
3460.96,67
3462.01,15
3463.07,29
3464.13,-5
3465.19,15
3466.25,205
3467.31,83
3468.37,4
3469.42,73
3470.48,76
3471.54,136
3472.6,51
3473.65,132
3474.71,215
3475.77,254
3476.82,575
3477.88,958
3478.94,1676
3479.99,2462
3481.05,3452
3482.11,3816
3483.16,3794
3484.22,3115
3485.27,2566
3486.33,1869
3487.39,1480
3488.44,968
3489.5,722
3490.55,504
3491.61,547
3492.66,432
3493.71,251
3494.77,232
3495.82,166
3496.88,180
3497.93,99
3498.99,81
3500.04,105
3501.09,37
3502.15,10
3503.2,35
3504.25,26
3505.31,48
3506.36,-96
3507.41,23
3508.46,-2
3509.52,65
3510.57,-37
3511.62,18
3512.67,45
3513.72,8
3514.78,-13
3515.83,46
3516.88,-21
3517.93,19
3518.98,110
3520.03,13
3521.08,-9
3522.13,-1
3523.18,55
3524.23,46
3525.28,-35
3526.33,18
3527.38,27
3528.43,2
3529.48,71
3530.53,37
3531.58,38
3532.63,-43
3533.68,0
3534.73,124
3535.78,48
3536.83,55
3537.88,-37
3538.92,-7
3539.97,87
3541.02,24
3542.07,64
3543.12,52
3544.16,118
3545.21,-27
3546.26,-12
3547.31,-27
3548.35,-8
3549.4,45
3550.45,-23
3551.49,51
3552.54,49
3553.59,-36
3554.63,-20
3555.68,96
3556.72,-11
3557.77,-14
3558.82,105
3559.86,-1
3560.91,-17
3561.95,65
3563,34
3564.04,23
3565.09,87
3566.13,37
3567.18,22
3568.22,31
3569.26,-20
3570.31,-7
3571.35,91
3572.4,3
3573.44,104
3574.48,-7
3575.53,-82
3576.57,19
3577.61,95
3578.65,-57
3579.7,-29
3580.74,66
3581.78,27
3582.82,26
3583.87,9
3584.91,-18
3585.95,107
3586.99,-64
3588.03,112
3589.08,21
3590.12,51
3591.16,144
3592.2,21
3593.24,-15
3594.28,28
3595.32,-61
3596.36,1
3597.4,8
3598.44,15
3599.48,-57
3600.52,-24
3601.56,-45
3602.6,-10
3603.64,25
3604.68,-6
3605.72,-7
3606.76,-61
3607.8,87
3608.84,-19
3609.88,61
3610.91,-74
3611.95,-6
3612.99,35
3614.03,8
3615.07,2
3616.1,52
3617.14,-24
3618.18,50
3619.22,62
3620.25,100
3621.29,18
3622.33,18
3623.36,48
3624.4,14
3625.44,91
3626.47,71
3627.51,107
3628.55,81
3629.58,226
3630.62,283
3631.65,412
3632.69,718
3633.72,1293
3634.76,2127
3635.79,3016
3636.83,3594
3637.86,3596
3638.9,3293
3639.93,2568
3640.97,1776
3642,1310
3643.04,860
3644.07,612
3645.1,492
3646.14,388
3647.17,284
3648.2,297
3649.24,171
3650.27,103
3651.3,52
3652.34,105
3653.37,22
3654.4,101
3655.43,64
3656.47,-28
3657.5,47
3658.53,26
3659.56,5
3660.59,-27
3661.63,-29
3662.66,22
3663.69,64
3664.72,55
3665.75,-8
3666.78,92
3667.81,54
3668.84,12
3669.87,52
3670.9,-33
3671.93,45
3672.96,7
3673.99,15
3675.02,86
3676.05,11
3677.08,43
3678.11,81
3679.14,-42
3680.17,48
3681.2,42
3682.23,75
3683.26,72
3684.28,31
3685.31,-117
3686.34,-23
3687.37,-90
3688.4,58
3689.42,16
3690.45,95
3691.48,16
3692.51,-24
3693.53,-29
3694.56,61
3695.59,45
3696.61,-4
3697.64,3
3698.67,-58
3699.69,62
3700.72,83
3701.75,1
3702.77,45
3703.8,53
3704.82,45
3705.85,-112
3706.87,-57
3707.9,-18
3708.92,-89
3709.95,3
3710.97,13
3712,41
3713.02,-13
3714.05,78
3715.07,-8
3716.1,58
3717.12,-35
3718.14,-45
3719.17,-13
3720.19,-38
3721.22,29
3722.24,46
3723.26,2
3724.28,29
3725.31,21
3726.33,20
3727.35,20
3728.38,-35
3729.4,-8
3730.42,89
3731.44,19
3732.46,28
3733.49,-7
3734.51,76
3735.53,78
3736.55,59
3737.57,-25
3738.59,-1
3739.61,-9
3740.63,41
3741.66,75
3742.68,11
3743.7,-14
3744.72,19
3745.74,-4
3746.76,44
3747.78,61
3748.8,-34
3749.82,53
3750.83,26
3751.85,132
3752.87,-19
3753.89,-32
3754.91,-16
3755.93,38
3756.95,65
3757.97,58
3758.99,64
3760,93
3761.02,43
3762.04,14
3763.06,-22
3764.07,-40
3765.09,32
3766.11,-25
3767.13,56
3768.14,49
3769.16,62
3770.18,2
3771.19,14
3772.21,41
3773.23,97
3774.24,-42
3775.26,-76
3776.28,-18
3777.29,24
3778.31,-15
3779.32,23
3780.34,134
3781.35,66
3782.37,24
3783.38,-37
3784.4,-30
3785.41,7
3786.43,15
3787.44,94
3788.46,-15
3789.47,44
3790.48,41
3791.5,-43
3792.51,58
3793.53,61
3794.54,63
3795.55,-9
3796.57,40
3797.58,57
3798.59,99
3799.61,26
3800.62,37
3801.63,69
3802.64,46
3803.66,11
3804.67,91
3805.68,25
3806.69,52
3807.7,11
3808.71,26
3809.73,48
3810.74,88
3811.75,175
3812.76,257
3813.77,452
3814.78,870
3815.79,1514
3816.8,2316
3817.81,3573
3818.82,4643
3819.83,5286
3820.84,5360
3821.85,4570
3822.86,3438
3823.87,2550
3824.88,1720
3825.89,1330
3826.9,926
3827.91,793
3828.92,711
3829.93,654
3830.93,461
3831.94,316
3832.95,213
3833.96,183
3834.97,107
3835.98,24
3836.98,85
3837.99,-19
3839,12
3840.01,-5
3841.01,-37
3842.02,186
3843.03,117
3844.03,45
3845.04,52
3846.05,6
3847.05,2
3848.06,56
3849.07,56
3850.07,29
3851.08,69
3852.08,76
3853.09,-28
3854.1,-27
3855.1,-15
3856.11,72
3857.11,-11
3858.12,-37
3859.12,56
3860.13,98
3861.13,84
3862.13,90
3863.14,36
3864.14,-30
3865.15,18
3866.15,8
3867.15,98
3868.16,15
3869.16,-37
3870.16,-28
3871.17,-82
3872.17,87
3873.17,63
3874.18,24
3875.18,85
3876.18,2
3877.18,59
3878.19,-20
3879.19,82
3880.19,-30
3881.19,4
3882.19,75
3883.2,-21
3884.2,106
3885.2,62
3886.2,46
3887.2,16
3888.2,12
3889.2,24
3890.2,125
3891.2,45
3892.2,54
3893.2,65
3894.2,-46
3895.2,7
3896.2,90
3897.2,114
3898.2,127
3899.2,141
3900.2,167
3901.2,260
3902.2,505
3903.2,744
3904.2,1335
3905.2,2121
3906.19,2978
3907.19,3523
3908.19,3849
3909.19,3622
3910.19,2938
3911.18,2110
3912.18,1465
3913.18,1093
3914.18,766
3915.17,644
3916.17,605
3917.17,473
3918.17,329
3919.16,280
3920.16,106
3921.16,261
3922.15,57
3923.15,147
3924.14,130
3925.14,113
3926.14,83
3927.13,50
3928.13,-34
3929.12,72
3930.12,92
3931.11,68
3932.11,23
3933.1,-9
3934.1,41
3935.09,-27
3936.09,16
3937.08,-3
3938.07,106
3939.07,55
3940.06,97
3941.06,83
3942.05,-15
3943.04,62
3944.04,-65
3945.03,87
3946.02,85
3947.02,-94
3948.01,94
3949,24
3949.99,51
3950.99,99
3951.98,-18
3952.97,14
3953.96,27
3954.96,115
3955.95,29
3956.94,44
3957.93,83
3958.92,106
3959.91,9
3960.9,-25
3961.9,-78
3962.89,63
3963.88,-12
3964.87,105
3965.86,48
3966.85,32
3967.84,-11
3968.83,-9
3969.82,7
3970.81,45
3971.8,15
3972.79,31
3973.78,-34
3974.77,5
3975.76,-6
3976.75,95
3977.73,19
3978.72,13
3979.71,-48
3980.7,69
3981.69,75
3982.68,-52
3983.66,80
3984.65,184
3985.64,-31
3986.63,1
3987.62,-69
3988.6,-4
3989.59,-8
3990.58,39
3991.56,-35
3992.55,6
3993.54,28
3994.53,-44
3995.51,73
3996.5,-16
3997.48,19
3998.47,71
3999.46,-4
4000.44,-27
4001.43,67
4002.41,48
4003.4,-34
4004.38,56
4005.37,117
4006.35,121
4007.34,-7
4008.32,93
4009.31,69
4010.29,-47
4011.28,1
4012.26,0
4013.25,-59
4014.23,-42
4015.21,-9
4016.2,5
4017.18,-23
4018.17,-44
4019.15,-37
4020.13,12
4021.12,0
4022.1,-20
4023.08,-14
4024.06,12
4025.05,-1
4026.03,47
4027.01,51
4027.99,-17
4028.98,-63
4029.96,-14
4030.94,-84
4031.92,-4
4032.9,16
4033.88,13
4034.87,34
4035.85,65
4036.83,-61
4037.81,20
4038.79,-7
4039.77,25
4040.75,66
4041.73,83
4042.71,-68
4043.69,-3
4044.67,62
4045.65,180
4046.63,21
4047.61,127
4048.59,15
4049.57,-8
4050.55,10
4051.53,23
4052.51,55
4053.49,33
4054.46,-30
4055.44,-19
4056.42,-10
4057.4,125
4058.38,116
4059.36,-138
4060.33,64
4061.31,-44
4062.29,-62
4063.27,34
4064.24,-65
4065.22,35
4066.2,-3
4067.18,8
4068.15,42
4069.13,33
4070.11,-93
4071.08,-55
4072.06,-11
4073.03,-14
4074.01,-29
4074.99,-9
4075.96,35
4076.94,6
4077.91,25
4078.89,61
4079.86,31
4080.84,-28
4081.81,13
4082.79,-28
4083.76,12
4084.74,22
4085.71,13
4086.69,-39
4087.66,19
4088.64,101
4089.61,31
4090.58,98
4091.56,29
4092.53,9
4093.51,80
4094.48,-1
4095.45,-64
4096.42,-12
4097.4,-5
4098.37,37
4099.34,-64
4100.32,102
4101.29,105
4102.26,17
4103.23,74
4104.21,35
4105.18,64
4106.15,51
4107.12,9
4108.09,95
4109.06,-59
4110.04,12
4111.01,32
4111.98,79
4112.95,32
4113.92,-36
4114.89,-18
4115.86,10
4116.83,19
4117.8,-44
4118.77,-12
4119.74,71
4120.71,-48
4121.68,-3
4122.65,-42
4123.62,27
4124.59,-40
4125.56,-66
4126.53,-45
4127.5,83
4128.47,-56
4129.43,-15
4130.4,-78
4131.37,-51
4132.34,105
4133.31,0
4134.28,-28
4135.24,40
4136.21,47
4137.18,14
4138.15,117
4139.12,-2
4140.08,-50
4141.05,-112
4142.02,-44
4142.98,-19
4143.95,31
4144.92,-29
4145.88,67
4146.85,60
4147.82,-4
4148.78,33
4149.75,-66
4150.71,-90
4151.68,-91
4152.65,47
4153.61,108
4154.58,-2
4155.54,41
4156.51,45
4157.47,5
4158.44,-82
4159.4,-167
4160.37,-39
4161.33,-44
4162.3,45
4163.26,10
4164.22,15
4165.19,47
4166.15,17
4167.12,-28
4168.08,21
4169.04,-125
4170.01,40
4170.97,78
4171.93,-18
4172.9,50
4173.86,27
4174.82,58
4175.78,-43
4176.75,-104
4177.71,85
4178.67,21
4179.63,27
4180.6,-52
4181.56,22
4182.52,-54
4183.48,24
4184.44,-39
4185.4,-1
4186.37,6
4187.33,-39
4188.29,57
4189.25,-28
4190.21,-40
4191.17,-48
4192.13,-41
4193.09,-63
4194.05,34
4195.01,65
4195.97,0
4196.93,5
4197.89,-27
4198.85,19
4199.81,-16
4200.77,-51
4201.73,9
4202.69,25
4203.65,49
4204.61,-32
4205.56,-27
4206.52,49
4207.48,14
4208.44,82
4209.4,-20
4210.36,10
4211.31,-61
4212.27,-7
4213.23,33
4214.19,-9
4215.14,30
4216.1,48
4217.06,117
4218.02,-9
4218.97,26
4219.93,-85
4220.89,-7
4221.84,-72
4222.8,-6
4223.76,9
4224.71,-18
4225.67,-11
4226.62,30
4227.58,48
4228.54,-66
4229.49,21
4230.45,23
4231.4,-16
4232.36,-37
4233.31,87
4234.27,21
4235.22,4
4236.18,-9
4237.13,103
4238.09,76
4239.04,-23
4239.99,6
4240.95,-2
4241.9,54
4242.86,30
4243.81,-83
4244.76,-16
4245.72,22
4246.67,19
4247.62,-67
4248.58,-18
4249.53,67
4250.48,13
4251.44,-45
4252.39,54
4253.34,48
4254.29,82
4255.24,15
4256.2,119
4257.15,-46
4258.1,94
4259.05,40
4260,42
4260.96,5
4261.91,70
4262.86,23
4263.81,-40
4264.76,39
4265.71,-126
4266.66,-40
4267.61,-26
4268.56,113
4269.51,-32
4270.46,-8
4271.41,-4
4272.36,-73
4273.31,23
4274.26,-49
4275.21,-45
4276.16,-65
4277.11,-3
4278.06,0
4279.01,-3
4279.96,-51
4280.91,16
4281.86,-61
4282.8,-86
4283.75,-63
4284.7,71
4285.65,23
4286.6,-39
4287.55,120
4288.49,21
4289.44,151
4290.39,72
4291.34,98
4292.28,-15
4293.23,71
4294.18,-1
4295.13,-33
4296.07,56
4297.02,-8
4297.97,38
4298.91,-25
4299.86,16
4300.8,-44
4301.75,24
4302.7,8
4303.64,79
4304.59,-5
4305.53,50
4306.48,93
4307.42,48
4308.37,1
4309.32,24
4310.26,28
4311.21,-36
4312.15,47
4313.09,42
4314.04,51
4314.98,49
4315.93,52
4316.87,83
4317.82,-25
4318.76,-3
4319.7,15
4320.65,108
4321.59,22
4322.53,-39
4323.48,16
4324.42,-33
4325.36,-19
4326.31,-42
4327.25,-122
4328.19,51
4329.13,149
4330.08,11
4331.02,12
4331.96,-49
4332.9,29
4333.85,-6
4334.79,-15
4335.73,28
4336.67,10
4337.61,48
4338.55,102
4339.49,-9
4340.44,8
4341.38,57
4342.32,-37
4343.26,12
4344.2,112
4345.14,-43
4346.08,-88
4347.02,14
4347.96,-27
4348.9,20
4349.84,39
4350.78,29
4351.72,1
4352.66,-2
4353.6,40
4354.54,58
4355.48,64
4356.42,-1
4357.35,-12
4358.29,37
4359.23,-38
4360.17,51
4361.11,116
4362.05,31
4362.98,110
4363.92,60
4364.86,107
4365.8,18
4366.74,116
4367.67,42
4368.61,284
4369.55,468
4370.49,749
4371.42,1266
4372.36,1891
4373.3,3257
4374.23,4479
4375.17,5935
4376.11,6354
4377.04,5681
4377.98,4506
4378.91,3391
4379.85,2639
4380.79,1959
4381.72,1533
4382.66,1395
4383.59,1171
4384.53,844
4385.46,770
4386.4,524
4387.33,424
4388.27,367
4389.2,246
4390.14,308
4391.07,193
4392.01,106
4392.94,69
4393.88,72
4394.81,-101
4395.74,22
4396.68,45
4397.61,74
4398.54,53
4399.48,-21
4400.41,58
4401.34,37
4402.28,-36
4403.21,96
4404.14,10
4405.08,-33
4406.01,75
4406.94,57
4407.87,-84
4408.81,-13
4409.74,38
4410.67,-28
4411.6,148
4412.53,-100
4413.46,9
4414.4,101
4415.33,-37
4416.26,-103
4417.19,121
4418.12,37
4419.05,-51
4419.98,-30
4420.91,72
4421.84,36
4422.77,1
4423.7,-14
4424.63,-23
4425.56,-103
4426.49,55
4427.42,5
4428.35,-11
4429.28,26
4430.21,-23
4431.14,24
4432.07,61
4433,-42
4433.93,-123
4434.86,107
4435.79,-11
4436.72,74
4437.64,-32
4438.57,96
4439.5,92
4440.43,47
4441.36,-23
4442.28,41
4443.21,7
4444.14,18
4445.07,89
4445.99,26
4446.92,17
4447.85,52
4448.78,8
4449.7,99
4450.63,68
4451.56,35
4452.48,73
4453.41,27
4454.34,43
4455.26,98
4456.19,107
4457.11,-19
4458.04,39
4458.97,63
4459.89,34
4460.82,-17
4461.74,7
4462.67,117
4463.59,-14
4464.52,-29
4465.44,68
4466.37,55
4467.29,119
4468.22,65
4469.14,30
4470.06,0
4470.99,72
4471.91,103
4472.84,34
4473.76,-77
4474.68,-72
4475.61,-37
4476.53,132
4477.45,94
4478.38,77
4479.3,38
4480.22,153
4481.15,10
4482.07,60
4482.99,5
4483.91,147
4484.84,86
4485.76,13
4486.68,-21
4487.6,12
4488.52,65
4489.45,79
4490.37,41
4491.29,69
4492.21,-13
4493.13,-2
4494.05,127
4494.97,-33
4495.9,85
4496.82,71
4497.74,82
4498.66,128
4499.58,26
4500.5,79
4501.42,25
4502.34,134
4503.26,-4
4504.18,147
4505.1,-6
4506.02,186
4506.94,4
4507.86,98
4508.78,188
4509.7,116
4510.61,-39
4511.53,124
4512.45,-10
4513.37,245
4514.29,98
4515.21,58
4516.13,-27
4517.04,160
4517.96,125
4518.88,99
4519.8,27
4520.72,13
4521.63,99
4522.55,-56
4523.47,107
4524.39,94
4525.3,132
4526.22,166
4527.14,115
4528.05,68
4528.97,134
4529.89,96
4530.8,89
4531.72,128
4532.64,90
4533.55,110
4534.47,38
4535.38,0
4536.3,152
4537.22,70
4538.13,69
4539.05,66
4539.96,159
4540.88,62
4541.79,40
4542.71,179
4543.62,142
4544.54,57
4545.45,80
4546.37,179
4547.28,77
4548.19,96
4549.11,164
4550.02,163
4550.94,-3
4551.85,182
4552.76,94
4553.68,49
4554.59,54
4555.5,222
4556.42,38
4557.33,160
4558.24,145
4559.16,138
4560.07,201
4560.98,197
4561.89,182
4562.81,144
4563.72,76
4564.63,253
4565.54,155
4566.45,193
4567.37,98
4568.28,136
4569.19,163
4570.1,242
4571.01,305
4571.92,230
4572.83,283
4573.75,422
4574.66,656
4575.57,708
4576.48,945
4577.39,778
4578.3,849
4579.21,784
4580.12,585
4581.03,614
4581.94,456
4582.85,477
4583.76,483
4584.67,599
4585.58,675
4586.49,1087
4587.4,1637
4588.3,2823
4589.21,5134
4590.12,9180
4591.03,15601
4591.94,25323
4592.85,34521
4593.76,41293
4594.66,43026
4595.57,39471
4596.48,34273
4597.39,27434
4598.3,21805
4599.2,16499
4600.11,12271
4601.02,9901
4601.93,7888
4602.83,6852
4603.74,5131
4604.65,4015
4605.55,2822
4606.46,2036
4607.37,1492
4608.27,1240
4609.18,881
4610.09,563
4610.99,468
4611.9,341
4612.81,295
4613.71,226
4614.62,273
4615.52,258
4616.43,272
4617.33,256
4618.24,170
4619.14,278
4620.05,171
4620.95,230
4621.86,325
4622.76,223
4623.67,260
4624.57,205
4625.48,198
4626.38,279
4627.29,213
4628.19,134
4629.09,277
4630,169
4630.9,92
4631.8,216
4632.71,270
4633.61,314
4634.51,316
4635.42,173
4636.32,226
4637.22,211
4638.13,108
4639.03,218
4639.93,117
4640.83,260
4641.74,167
4642.64,286
4643.54,238
4644.44,58
4645.34,201
4646.24,201
4647.15,208
4648.05,248
4648.95,392
4649.85,320
4650.75,318
4651.65,165
4652.55,281
4653.45,306
4654.35,340
4655.26,177
4656.16,168
4657.06,235
4657.96,269
4658.86,176
4659.76,312
4660.66,152
4661.56,253
4662.46,177
4663.35,234
4664.25,315
4665.15,229
4666.05,215
4666.95,322
4667.85,293
4668.75,247
4669.65,156
4670.55,146
4671.45,243
4672.34,229
4673.24,280
4674.14,237
4675.04,176
4675.94,254
4676.83,163
4677.73,342
4678.63,272
4679.53,349
4680.42,347
4681.32,219
4682.22,231
4683.11,166
4684.01,236
4684.91,212
4685.81,279
4686.7,231
4687.6,310
4688.49,290
4689.39,334
4690.29,301
4691.18,208
4692.08,181
4692.97,150
4693.87,256
4694.77,181
4695.66,150
4696.56,224
4697.45,166
4698.35,50
4699.24,72
4700.14,159
4701.03,123
4701.93,238
4702.82,-7
4703.71,257
4704.61,39
4705.5,133
4706.4,105
4707.29,22
4708.18,119
4709.08,63
4709.97,5
4710.87,126
4711.76,89
4712.65,189
4713.54,192
4714.44,64
4715.33,-32
4716.22,104
4717.12,81
4718.01,100
4718.9,40
4719.79,3
4720.69,105
4721.58,42
4722.47,92
4723.36,108
4724.25,33
4725.15,152
4726.04,66
4726.93,111
4727.82,68
4728.71,166
4729.6,-63
4730.49,115
4731.38,-14
4732.27,96
4733.16,10
4734.06,53
4734.95,207
4735.84,-4
4736.73,17
4737.62,148
4738.51,44
4739.4,88
4740.29,65
4741.18,274
4742.07,197
4742.95,91
4743.84,73
4744.73,44
4745.62,-14
4746.51,52
4747.4,136
4748.29,-60
4749.18,18
4750.07,33
4750.95,40
4751.84,-71
4752.73,37
4753.62,55
4754.51,103
4755.39,130
4756.28,88
4757.17,-35
4758.06,84
4758.94,27
4759.83,15
4760.72,106
4761.61,-21
4762.49,-32
4763.38,-23
4764.27,47
4765.15,17
4766.04,151
4766.93,104
4767.81,98
4768.7,18
4769.58,-65
4770.47,88
4771.36,67
4772.24,162
