  922.68762     0.00000
  921.60983     6.00000
  920.53204    84.00000
  919.45425    61.00000
  918.37646    89.00000
  917.29867    88.00000
  916.22088    92.00000
  915.14308   106.00000
  914.06529   115.00000
  912.98750   122.00000
  911.90971   137.00000
  910.83192   138.00000
  909.75413   145.00000
  908.67634   151.00000
  907.59855   118.00000
  906.52076   134.00000
  905.44297   131.00000
  904.36518   113.00000
  903.28739   133.00000
  902.20960   119.00000
  901.13181   118.00000
  900.05402   131.00000
  898.97623   140.00000
  897.89844   139.00000
  896.82065   125.00000
  895.74286   152.00000
  894.66506   153.00000
  893.58727   150.00000
  892.50948   138.00000
  891.43169   147.00000
  890.35390   160.00000
  889.27611   158.00000
  888.19832   150.00000
  887.12053   173.00000
  886.04274   169.00000
  884.96495   168.00000
  883.88716   170.00000
  882.80937   172.00000
  881.73158   203.00000
  880.65379   233.00000
  879.57600   251.00000
  878.49821   264.00000
  877.42042   294.00000
  876.34263   321.00000
  875.26484   270.00000
  874.18704   263.00000
  873.10925   236.00000
  872.03146   226.00000
  870.95367   189.00000
  869.87588   160.00000
  868.79809   146.00000
  867.72030   137.00000
  866.64251   146.00000
  865.56472   125.00000
  864.48693   125.00000
  863.40914   141.00000
  862.33135   113.00000
  861.25356   128.00000
  860.17577   126.00000
  859.09798   115.00000
  858.02019   115.00000
  856.94240   103.00000
  855.86461   118.00000
  854.78682   126.00000
  853.70903   128.00000
  852.63123    96.00000
  851.55344   118.00000
  850.47565   124.00000
  849.39786   131.00000
  848.32007    93.00000
  847.24228   141.00000
  846.16449   134.00000
  845.08670   134.00000
  844.00891   122.00000
  842.93112   127.00000
  841.85333   138.00000
  840.77554   155.00000
  839.69775   142.00000
  838.61996   171.00000
  837.54217   159.00000
  836.46438   171.00000
  835.38659   176.00000
  834.30880   176.00000
  833.23101   208.00000
  832.15321   221.00000
  831.07542   235.00000
  829.99763   234.00000
  828.91984   231.00000
  827.84205   249.00000
  826.76426   262.00000
  825.68647   282.00000
  824.60868   306.00000
  823.53089   319.00000
  822.45310   355.00000
  821.37531   383.00000
  820.29752   375.00000
  819.21973   405.00000
  818.14194   384.00000
  817.06415   361.00000
  815.98636   307.00000
  814.90857   307.00000
  813.83078   270.00000
  812.75299   218.00000
  811.67519   205.00000
  810.59740   201.00000
  809.51961   201.00000
  808.44182   213.00000
  807.36403   201.00000
  806.28624   208.00000
  805.20845   200.00000
  804.13066   204.00000
  803.05287   234.00000
  801.97508   200.00000
  800.89729   227.00000
  799.81950   222.00000
  798.74171   220.00000
  797.66392   228.00000
  796.58613   240.00000
  795.50834   241.00000
  794.43055   236.00000
  793.35276   232.00000
  792.27497   235.00000
  791.19717   235.00000
  790.11938   244.00000
  789.04159   234.00000
  787.96380   225.00000
  786.88601   223.00000
  785.80822   220.00000
  784.73043   216.00000
  783.65264   208.00000
  782.57485   197.00000
  781.49706   190.00000
  780.41927   188.00000
  779.34148   193.00000
  778.26369   179.00000
  777.18590   173.00000
  776.10811   183.00000
  775.03032   172.00000
  773.95253   165.00000
  772.87474   199.00000
  771.79695   183.00000
  770.71915   204.00000
  769.64136   171.00000
  768.56357   195.00000
  767.48578   205.00000
  766.40799   197.00000
  765.33020   218.00000
  764.25241   236.00000
  763.17462   248.00000
  762.09683   246.00000
  761.01904   263.00000
  759.94125   269.00000
  758.86346   295.00000
  757.78567   269.00000
  756.70788   268.00000
  755.63009   274.00000
  754.55230   274.00000
  753.47451   291.00000
  752.39672   267.00000
  751.31893   271.00000
  750.24113   268.00000
  749.16334   275.00000
  748.08555   271.00000
  747.00776   257.00000
  745.92997   269.00000
  744.85218   242.00000
  743.77439   236.00000
  742.69660   221.00000
  741.61881   205.00000
  740.54102   199.00000
  739.46323   194.00000
  738.38544   184.00000
  737.30765   190.00000
  736.22986   199.00000
  735.15207   191.00000
  734.07428   192.00000
  732.99649   187.00000
  731.91870   189.00000
  730.84091   221.00000
  729.76311   199.00000
  728.68532   192.00000
  727.60753   184.00000
  726.52974   194.00000
  725.45195   167.00000
  724.37416   194.00000
  723.29637   185.00000
  722.21858   155.00000
  721.14079   169.00000
  720.06300   161.00000
  718.98521   159.00000
  717.90742   173.00000
  716.82963   183.00000
  715.75184   157.00000
  714.67405   184.00000
  713.59626   180.00000
  712.51847   161.00000
  711.44068   184.00000
  710.36289   178.00000
  709.28510   185.00000
  708.20730   195.00000
  707.12951   190.00000
  706.05172   194.00000
  704.97393   211.00000
  703.89614   204.00000
  702.81835   209.00000
  701.74056   248.00000
  700.66277   228.00000
  699.58498   234.00000
  698.50719   213.00000
  697.42940   221.00000
  696.35161   199.00000
  695.27382   200.00000
  694.19603   179.00000
  693.11824   166.00000
  692.04045   173.00000
  690.96266   152.00000
  689.88487   139.00000
  688.80708   143.00000
  687.72928   160.00000
  686.65149   151.00000
  685.57370   151.00000
  684.49591   152.00000
  683.41812   164.00000
  682.34033   145.00000
  681.26254   133.00000
  680.18475   156.00000
  679.10696   155.00000
  678.02917   160.00000
  676.95138   149.00000
  675.87359   134.00000
  674.79580   150.00000
  673.71801   151.00000
  672.64022   149.00000
  671.56243   122.00000
  670.48464   140.00000
  669.40685   130.00000
  668.32906   146.00000
  667.25126   136.00000
  666.17347   145.00000
  665.09568   141.00000
  664.01789   129.00000
  662.94010   118.00000
  661.86231   151.00000
  660.78452   141.00000
  659.70673   153.00000
  658.62894   165.00000
  657.55115   148.00000
  656.47336   163.00000
  655.39557   146.00000
  654.31778   140.00000
  653.23999   149.00000
  652.16220   138.00000
  651.08441   166.00000
  650.00662   144.00000
  648.92883   136.00000
  647.85104   141.00000
  646.77324   140.00000
  645.69545   148.00000
  644.61766   142.00000
  643.53987   124.00000
  642.46208   123.00000
  641.38429   136.00000
  640.30650   148.00000
  639.22871   131.00000
  638.15092   144.00000
  637.07313   146.00000
  635.99534   138.00000
  634.91755   149.00000
  633.83976   138.00000
  632.76197   161.00000
  631.68418   139.00000
  630.60639   183.00000
  629.52860   165.00000
  628.45081   184.00000
  627.37302   197.00000
  626.29522   252.00000
  625.21743   243.00000
  624.13964   244.00000
  623.06185   252.00000
  621.98406   245.00000
  620.90627   206.00000
  619.82848   194.00000
  618.75069   167.00000
  617.67290   187.00000
  616.59511   171.00000
  615.51732   169.00000
  614.43953   178.00000
  613.36174   167.00000
  612.28395   166.00000
  611.20616   163.00000
  610.12837   148.00000
  609.05058   163.00000
  607.97279   163.00000
  606.89500   159.00000
  605.81720   150.00000
  604.73941   176.00000
  603.66162   158.00000
  602.58383   159.00000
  601.50604   146.00000
  600.42825   149.00000
  599.35046   163.00000
  598.27267   178.00000
  597.19488   160.00000
  596.11709   169.00000
  595.03930   175.00000
  593.96151   161.00000
  592.88372   174.00000
  591.80593   165.00000
  590.72814   164.00000
  589.65035   157.00000
  588.57256   162.00000
  587.49477   158.00000
  586.41698   170.00000
  585.33918   151.00000
  584.26139   154.00000
  583.18360   148.00000
  582.10581   158.00000
  581.02802   151.00000
  579.95023   153.00000
  578.87244   159.00000
  577.79465   161.00000
  576.71686   146.00000
  575.63907   188.00000
  574.56128   170.00000
  573.48349   172.00000
  572.40570   182.00000
  571.32791   176.00000
  570.25012   193.00000
  569.17233   191.00000
  568.09454   173.00000
  567.01675   166.00000
  565.93896   185.00000
  564.86117   174.00000
  563.78337   189.00000
  562.70558   149.00000
  561.62779   173.00000
  560.55000   167.00000
  559.47221   164.00000
  558.39442   174.00000
  557.31663   165.00000
  556.23884   184.00000
  555.16105   163.00000
  554.08326   179.00000
  553.00547   185.00000
  551.92768   190.00000
  550.84989   191.00000
  549.77210   188.00000
  548.69431   196.00000
  547.61652   199.00000
  546.53873   208.00000
  545.46094   216.00000
  544.38315   216.00000
  543.30535   244.00000
  542.22756   246.00000
  541.14977   248.00000
  540.07198   249.00000
  538.99419   229.00000
  537.91640   223.00000
  536.83861   227.00000
  535.76082   231.00000
  534.68303   251.00000
  533.60524   242.00000
  532.52745   256.00000
  531.44966   255.00000
  530.37187   255.00000
  529.29408   266.00000
  528.21629   253.00000
  527.13850   260.00000
  526.06071   236.00000
  524.98292   238.00000
  523.90513   206.00000
  522.82733   183.00000
  521.74954   212.00000
  520.67175   194.00000
  519.59396   202.00000
  518.51617   194.00000
  517.43838   204.00000
  516.36059   193.00000
  515.28280   187.00000
  514.20501   202.00000
  513.12722   190.00000
  512.04943   179.00000
  510.97164   188.00000
  509.89385   193.00000
  508.81606   171.00000
  507.73827   177.00000
  506.66048   172.00000
  505.58269   182.00000
  504.50490   186.00000
  503.42711   168.00000
  502.34931   162.00000
  501.27152   163.00000
  500.19373   203.00000
  499.11594   182.00000
  498.03815   166.00000
  496.96036   195.00000
  495.88257   202.00000
  494.80478   162.00000
  493.72699   223.00000
  492.64920   217.00000
  491.57141   210.00000
  490.49362   245.00000
  489.41583   246.00000
  488.33804   239.00000
  487.26025   255.00000
  486.18246   262.00000
  485.10467   269.00000
  484.02688   269.00000
  482.94909   269.00000
  481.87129   257.00000
  480.79350   256.00000
  479.71571   249.00000
  478.63792   236.00000
  477.56013   250.00000
  476.48234   244.00000
  475.40455   234.00000
  474.32676   258.00000
  473.24897   234.00000
  472.17118   244.00000
  471.09339   249.00000
  470.01560   251.00000
  468.93781   264.00000
  467.86002   240.00000
  466.78223   270.00000
  465.70444   272.00000
  464.62665   304.00000
  463.54886   327.00000
  462.47107   351.00000
  461.39327   376.00000
  460.31548   387.00000
  459.23769   412.00000
  458.15990   453.00000
  457.08211   467.00000
  456.00432   517.00000
  454.92653   556.00000
  453.84874   586.00000
  452.77095   652.00000
  451.69316   662.00000
  450.61537   683.00000
  449.53758   690.00000
  448.45979   722.00000
  447.38200   731.00000
  446.30421   735.00000
  445.22642   720.00000
  444.14863   702.00000
  443.07084   685.00000
  441.99305   678.00000
  440.91526   658.00000
  439.83746   658.00000
  438.75967   668.00000
  437.68188   687.00000
  436.60409   726.00000
  435.52630   775.00000
  434.44851   872.00000
  433.37072   946.00000
  432.29293  1032.00000
  431.21514  1186.00000
  430.13735  1289.00000
  429.05956  1447.00000
  427.98177  1592.00000
  426.90398  1728.00000
  425.82619  1868.00000
  424.74840  1953.00000
  423.67061  2048.00000
  422.59282  2058.00000
  421.51503  2032.00000
  420.43724  1991.00000
  419.35944  1910.00000
  418.28165  1778.00000
  417.20386  1663.00000
  416.12607  1571.00000
  415.04828  1482.00000
  413.97049  1473.00000
  412.89270  1444.00000
  411.81491  1572.00000
  410.73712  1643.00000
  409.65933  1818.00000
  408.58154  2063.00000
  407.50375  2320.00000
  406.42596  2647.00000
  405.34817  2988.00000
  404.27038  3384.00000
  403.19259  3719.00000
  402.11480  4040.00000
  401.03701  4348.00000
  399.95922  4360.00000
  398.88142  4338.00000
  397.80363  4132.00000
  396.72584  3756.00000
  395.64805  3347.00000
  394.57026  2851.00000
  393.49247  2431.00000
  392.41468  2087.00000
  391.33689  1857.00000
  390.25910  1761.00000
  389.18131  1756.00000
  388.10352  1865.00000
  387.02573  2115.00000
  385.94794  2376.00000
  384.87015  2676.00000
  383.79236  3038.00000
  382.71457  3434.00000
  381.63678  3806.00000
  380.55899  4132.00000
  379.48120  4373.00000
  378.40340  4367.00000
  377.32561  4076.00000
  376.24782  3542.00000
  375.17003  2829.00000
  374.09224  2111.00000
  373.01445  1521.00000
  371.93666  1063.00000
  370.85887   741.00000
  369.78108   525.00000
  368.70329   402.00000
  367.62550   299.00000
  366.54771   261.00000
  365.46992   227.00000
  364.39213   206.00000
  363.31434   198.00000
  362.23655   168.00000
  361.15876   166.00000
  360.08097   176.00000
  359.00318   154.00000
  357.92538   143.00000
  356.84759   139.00000
  355.76980   132.00000
  354.69201   137.00000
  353.61422   138.00000
  352.53643   129.00000
  351.45864   121.00000
  350.38085   132.00000
  349.30306   126.00000
  348.22527   118.00000
  347.14748   140.00000
  346.06969   109.00000
  344.99190   150.00000
  343.91411   108.00000
  342.83632   145.00000
  341.75853   119.00000
  340.68074   123.00000
  339.60295   129.00000
  338.52516   109.00000
  337.44736   106.00000
  336.36957   120.00000
  335.29178   124.00000
  334.21399   132.00000
  333.13620   112.00000
  332.05841   122.00000
  330.98062   121.00000
  329.90283   108.00000
  328.82504    96.00000
  327.74725   104.00000
  326.66946   111.00000
  325.59167   107.00000
  324.51388   115.00000
  323.43609    99.00000
  322.35830   106.00000
  321.28051   100.00000
  320.20272    99.00000
  319.12493    94.00000
  318.04714    89.00000
  316.96934    88.00000
  315.89155    96.00000
  314.81376    93.00000
  313.73597    82.00000
  312.65818    74.00000
  311.58039    85.00000
  310.50260    71.00000
  309.42481    69.00000
  308.34702    51.00000
  307.26923    62.00000
  306.19144    61.00000
  305.11365    46.00000
  304.03586    59.00000
  302.95807    57.00000
  301.88028    68.00000
  300.80249    42.00000
