3200.69	242.533
3200.09	242.533
3199.5	246.677
3198.9	255
3198.3	213.165
3197.7	229.848
3197.1	221.457
3196.51	221.423
3195.91	200.504
3195.31	217.179
3194.71	196.267
3194.11	179.536
3193.51	187.858
3192.91	166.96
3192.31	187.801
3191.71	191.945
3191.12	175.228
3190.52	187.716
3189.92	141.808
3189.32	162.637
3188.72	191.8
3188.12	195.939
3187.52	179.237
3186.92	170.874
3186.32	195.85
3185.72	191.654
3185.12	191.625
3184.52	162.44
3183.92	195.731
3183.32	149.899
3182.72	158.203
3182.12	203.967
3181.52	191.45
3180.91	158.131
3180.31	195.553
3179.71	166.403
3179.11	187.175
3178.51	158.034
3177.91	178.801
3177.31	195.404
3176.71	182.904
3176.11	195.345
3175.5	232.716
3174.9	240.991
3174.3	240.954
3173.7	261.686
3173.1	265.799
3172.49	240.844
3171.89	307.237
3171.29	282.283
3170.69	298.843
3170.09	340.297
3169.48	336.096
3168.88	336.044
3168.28	360.882
3167.67	335.942
3167.07	435.414
3166.47	373.156
3165.87	439.428
3165.26	368.897
3164.66	393.707
3164.06	310.774
3163.45	314.87
3162.85	368.673
3162.25	281.64
3161.64	244.327
3161.04	310.537
3160.43	264.952
3159.83	231.797
3159.23	252.455
3158.62	252.417
3158.02	260.653
3157.41	244.066
3156.81	268.846
3156.2	256.399
3155.6	231.551
3154.99	231.515
3154.39	256.281
3153.79	198.381
3153.18	264.468
3152.58	223.111
3151.97	210.684
3151.36	243.695
3150.76	202.36
3150.15	231.233
3149.55	227.07
3148.94	231.163
3148.34	222.873
3147.73	247.599
3147.13	231.057
3146.52	239.273
3145.91	226.862
3145.31	226.828
3144.7	226.793
3144.09	181.407
3143.49	210.235
3142.88	226.689
3142.27	218.413
3141.67	210.139
3141.06	201.867
3140.45	222.432
3139.85	197.687
3139.24	226.482
3138.63	209.979
3138.03	226.413
3137.42	222.263
3136.81	234.575
3136.2	250.998
3135.6	246.845
3134.99	230.354
3134.38	238.545
3133.77	267.294
3133.16	279.588
3132.56	226.103
3131.95	246.62
3131.34	250.692
3130.73	246.544
3130.12	258.832
3129.51	234.146
3128.9	217.681
3128.3	295.673
3127.69	316.157
3127.08	234.003
3126.47	287.328
3125.86	262.66
3125.25	270.827
3124.64	242.066
3124.03	266.642
3123.42	246.093
3122.81	340.377
3122.2	344.426
3121.59	311.576
3120.98	344.32
3120.37	307.382
3119.76	364.704
3119.15	315.483
3118.54	372.786
3117.93	307.194
3117.32	352.196
3116.71	343.953
3116.1	356.182
3115.49	397.062
3114.88	384.723
3114.27	446.047
3113.66	511.443
3113.05	482.729
3112.44	429.481
3111.82	490.761
3111.21	433.439
3110.6	519.23
3109.99	543.677
3109.38	568.117
3108.77	494.472
3108.15	510.741
3107.54	547.43
3106.93	531.008
3106.32	535.011
3105.71	579.847
3105.09	575.675
3104.48	591.916
3103.87	567.336
3103.26	550.926
3102.64	563.082
3102.03	611.953
3101.42	575.147
3100.8	615.844
3100.19	680.995
3099.58	676.813
3098.97	652.251
3098.35	627.695
3097.74	700.955
3097.12	717.146
3096.51	725.185
3095.9	737.294
3095.28	839.002
3094.67	851.09
3094.06	802.101
3093.44	907.823
3092.83	960.599
3092.21	972.661
3091.6	1049.82
3090.98	1053.73
3090.37	1155.27
3089.75	1171.36
3089.14	1280.98
3088.53	1179.13
3087.91	1317.17
3087.3	1414.53
3086.68	1357.41
3086.06	1588.82
3085.45	1637.33
3084.83	1669.58
3084.22	1665.26
3083.6	1758.41
3082.99	1814.99
3082.37	2005.52
3081.76	2074.22
3081.14	2155.07
3080.52	2325.17
3079.91	2442.48
3079.29	2535.41
3078.67	2794.6
3078.06	2830.67
3077.44	3130.29
3076.83	3271.71
3076.21	3348.23
3075.59	3667.89
3074.97	3918.57
3074.36	4387.97
3073.74	4739.74
3073.12	4702.56
3072.51	5272.86
3071.89	5547.4
3071.27	5838.05
3070.65	6440.3
3070.04	6645.72
3069.42	7154.59
3068.8	7452.91
3068.18	7645.95
3067.56	8142.29
3066.95	8460.54
3066.33	8851.47
3065.71	9007.79
3065.09	9418.73
3064.47	9534.5
3063.85	9634.07
3063.23	9887.14
3062.62	9776.55
3062	10065.9
3061.38	10108.8
3060.76	10337.4
3060.14	10347.9
3059.52	10233.3
3058.9	10482
3058.28	10577.2
3057.66	10684.5
3057.04	10618.3
3056.42	10915.2
3055.8	10627.2
3055.18	10915.9
3054.56	10648.1
3053.94	10396.5
3053.32	10084.6
3052.7	9792.88
3052.08	9279.64
3051.46	8629.59
3050.84	8245.59
3050.22	7430.77
3049.6	7256.47
3048.98	6631.28
3048.36	6058.62
3047.74	5989.26
3047.11	5549.68
3046.49	5436.16
3045.87	5383.03
3045.25	5036.26
3044.63	4922.87
3044.01	4741.16
3043.39	4812.8
3042.76	4683.42
3042.14	4606.33
3041.52	4657.87
3040.9	4721.44
3040.27	4491.71
3039.65	4527.17
3039.03	4241.31
3038.41	4316.96
3037.78	4083.42
3037.16	4114.91
3036.54	3877.45
3035.92	3868.83
3035.29	3667.6
3034.67	3470.45
3034.05	3317.48
3033.42	3312.96
3032.8	3119.96
3032.18	2846.82
3031.55	2758.19
3030.93	2717.68
3030.31	2621.08
3029.68	2416.31
3029.06	2395.91
3028.43	2111.12
3027.81	2194.9
3027.19	1870.19
3026.56	1853.88
3025.94	1713.48
3025.31	1685.19
3024.69	1732.96
3024.06	1524.61
3023.44	1484.37
3022.81	1336.12
3022.19	1303.92
3021.56	1227.74
3020.94	1251.54
3020.31	1143.4
3019.69	1171.21
3019.06	1127.06
3018.44	1070.95
3017.81	1010.85
3017.18	1082.6
3016.56	1002.55
3015.93	954.472
3015.31	1046.16
3014.68	1061.97
3014.05	1077.78
3013.43	1065.64
3012.8	1173.22
3012.17	1208.95
3011.55	1204.77
3010.92	1296.32
3010.29	1312.08
3009.67	1431.5
3009.04	1495.07
3008.41	1590.51
3007.79	1646.06
3007.16	1717.54
3006.53	1828.84
3005.9	1936.12
3005.28	1915.9
3004.65	1863.83
3004.02	1955.13
3003.39	1899.09
3002.76	1886.86
3002.14	1691.54
3001.51	1651.49
3000.88	1595.53
3000.25	1475.93
2999.62	1427.97
2998.99	1165.27
2998.36	1264.5
2997.74	1141.06
2997.11	1045.48
2996.48	1104.93
2995.85	1021.31
2995.22	1068.83
2994.59	977.294
2993.96	1016.86
2993.33	961.107
2992.7	901.395
2992.07	1028.31
2991.44	1044.03
2990.81	1039.9
2990.18	1035.77
2989.55	1087.19
2988.92	1206.04
2988.29	1217.75
2987.66	1340.51
2987.03	1300.65
2986.4	1256.84
2985.77	1470.71
2985.14	1617.13
2984.51	1680.29
2983.88	1818.71
2983.25	1798.62
2982.62	1960.75
2981.98	2067.38
2981.35	2039.34
2980.72	2252.83
2980.09	2284.15
2979.46	2113.6
2978.83	2140.98
2978.19	1994.24
2977.56	1946.46
2976.93	1958.03
2976.3	1874.67
2975.67	1763.66
2975.03	1727.8
2974.4	1612.89
2973.77	1644.27
2973.14	1561.02
2972.5	1568.68
2971.87	1548.69
2971.24	1520.8
2970.61	1496.86
2969.97	1567.71
2969.34	1591.16
2968.71	1567.23
2968.07	1563.04
2967.44	1523.33
2966.81	1507.31
2966.17	1546.53
2965.54	1577.85
2964.9	1542.11
2964.27	1573.42
2963.64	1521.92
2963	1431.02
2962.37	1600.28
2961.73	1517.27
2961.1	1607.67
2960.46	1560.14
2959.83	1689.89
2959.19	1606.92
2958.56	1772.07
2957.93	1610.36
2957.29	1806.95
2956.65	1724.01
2956.02	1676.52
2955.38	1802.18
2954.75	1738.95
2954.11	1880.29
2953.48	1836.74
2952.84	1899.37
2952.21	1879.42
2951.57	2087.48
2950.93	2059.65
2950.3	2075.05
2949.66	2192.61
2949.03	2121.55
2948.39	2215.5
2947.75	2250.51
2947.12	2497.56
2946.48	2528.58
2945.84	2539.97
2945.21	2547.42
2944.57	2562.73
2943.93	2825.24
2943.29	2883.65
2942.66	3016.57
2942.02	3039.64
2941.38	3113.68
2940.74	3124.96
2940.11	3249.92
2939.47	3327.81
2938.83	3531.09
2938.19	3463.93
2937.55	3592.68
2936.92	3635.22
2936.28	3701.24
2935.64	3822.06
2935	3931.1
2934.36	4008.79
2933.72	4270.42
2933.09	4297.15
2932.45	4417.79
2931.81	4354.51
2931.17	4545.51
2930.53	4556.54
2929.89	4684.89
2929.25	4895.3
2928.61	4831.99
2927.97	4991.5
2927.33	5190.04
2926.69	5122.81
2926.05	5258.76
2925.41	5156.38
2924.77	5323.53
2924.13	5303.18
2923.49	5653.76
2922.85	5403.03
2922.21	5659.81
2921.57	5713.57
2920.93	5892.19
2920.29	5856.16
2919.65	5964.48
2919.01	6010.35
2918.37	6153.71
2917.72	6121.56
2917.08	6221.97
2916.44	6388.62
2915.8	6531.82
2915.16	6538.6
2914.52	6666.16
2913.88	6696.29
2913.23	6574.51
2912.59	6744.84
2911.95	6806.09
2911.31	6680.45
2910.66	6780.62
2910.02	6736.76
2909.38	6762.95
2908.74	7034.24
2908.09	6865.88
2907.45	6985.39
2906.81	6560.42
2906.17	6994.88
2905.52	6756.65
2904.88	6864.44
2904.24	6847.83
2903.59	7009.97
2902.95	6884.55
2902.31	6658.18
2901.66	6626.07
2901.02	6764.85
2900.38	6767.68
2899.73	6374.53
2899.09	6214.39
2898.44	6302.69
2897.8	6224.1
2897.15	5866.2
2896.51	5737.27
2895.87	5616.15
2895.22	5576.49
2894.58	5230.54
2893.93	5210.35
2893.29	5116.51
2892.64	4960.69
2892	4886.3
2891.35	4711.19
2890.71	4706.59
2890.06	4477.34
2889.41	4383.7
2888.77	4162.32
2888.12	4146.19
2887.48	4087.48
2886.83	3963.01
2886.18	3799.87
2885.54	3690.95
2884.89	3551.12
2884.25	3697.54
2883.6	3526.81
2882.95	3367.73
2882.31	3347.88
2881.66	3239.13
2881.01	3188.38
2880.37	3195.62
2879.72	3121.71
2879.07	3067.15
2878.42	3047.36
2877.78	3131.84
2877.13	2918.99
2876.48	2961
2875.83	3037.74
2875.19	3079.72
2874.54	3044.51
2873.89	3017.03
2873.24	2947.13
2872.59	3062.38
2871.95	3123.6
2871.3	3096.12
2870.65	3114.92
2870	3083.6
2869.35	3225.71
2868.7	3325.39
2868.05	3128.39
2867.4	3135.61
2866.76	3169.78
2866.11	3415.74
2865.46	3438.31
2864.81	3480.12
2864.16	3448.79
2863.51	3513.68
2862.86	3628.57
2862.21	3662.63
2861.56	3608.2
2860.91	3796.1
2860.26	4030.08
2859.61	4002.54
2858.96	4013.45
2858.31	3947.48
2857.66	4069.85
2857.01	4153.75
2856.36	4057.05
2855.71	4163.97
2855.05	4190.21
2854.4	4270.2
2853.75	4138.99
2853.1	4195.93
2852.45	4133.86
2851.8	4110.19
2851.15	3982.93
2850.5	3928.59
2849.84	3651.79
2849.19	3528.49
2848.54	3259.51
2847.89	3251.34
2847.24	3047.65
2846.58	2886.19
2845.93	2805.27
2845.28	2544.27
2844.63	2310.17
2843.97	2152.76
2843.32	1976.25
2842.67	1907.01
2842.01	1661.67
2841.36	1626.96
2840.71	1446.81
2840.06	1385.36
2839.4	1297.13
2838.75	1163.03
2838.09	1082.52
2837.44	1021.16
2836.79	1043.94
2836.13	917.608
2835.48	890.706
2834.83	772.079
2834.17	833.104
2833.52	768.017
2832.86	744.975
2832.21	676.102
2831.55	664.539
2830.9	683.528
2830.24	641.424
2829.59	645.141
2828.93	622.139
2828.28	660.204
2827.62	618.129
2826.97	602.773
2826.31	640.823
2825.66	568.26
2825	571.984
2824.35	560.457
2823.69	564.181
2823.03	537.413
2822.38	590.681
2821.72	567.727
2821.07	544.78
2820.41	537.077
2819.75	540.802
2819.1	498.831
2818.44	506.367
2817.78	601.455
2817.13	517.627
2816.47	475.686
2815.81	483.221
2815.16	486.95
2814.5	471.659
2813.84	486.798
2813.18	475.314
2812.53	467.636
2811.87	482.768
2811.21	494.095
2810.55	482.617
2809.89	414.15
2809.24	463.471
2808.58	429.213
2807.92	413.955
2807.26	451.862
2806.6	466.978
2805.94	440.333
2805.29	493.399
2804.63	425.016
2803.97	462.891
2803.31	417.296
2802.65	428.609
2801.99	447.504
2801.33	462.601
2800.67	405.661
2800.01	443.503
2799.35	466.174
2798.69	450.943
2798.03	454.662
2797.37	458.379
2796.71	503.759
2796.05	439.3
2795.39	439.231
2794.73	499.736
2794.07	488.302
2793.41	431.455
2792.75	491.933
2792.09	446.454
2791.43	533.391
2790.77	450.097
2790.11	480.28
2789.45	552.046
2788.78	517.935
2788.12	532.973
2787.46	532.89
2786.8	551.7
2786.14	559.17
2785.48	589.303
2784.82	562.772
2784.15	536.249
2783.49	641.887
2782.83	547.406
2782.17	588.841
2781.5	603.845
2780.84	649.032
2780.18	565.927
2779.52	546.977
2778.85	565.75
2778.19	543.035
2777.53	561.802
2776.86	580.563
2776.2	493.778
2775.54	527.619
2774.87	576.522
2774.21	489.778
2773.55	542.439
2772.88	474.559
2772.22	478.251
2771.56	459.35
2770.89	496.923
2770.23	489.317
2769.56	447.843
2768.9	444.01
2768.23	458.989
2767.57	440.109
2766.9	481.411
2766.24	500.138
2765.57	500.06
2764.91	488.703
2764.24	548.765
2763.58	447.211
2762.91	480.958
2762.25	514.695
2761.58	469.538
2760.92	416.884
2760.25	514.452
2759.59	439.281
2758.92	499.275
2758.25	502.95
2757.59	457.838
2756.92	502.792
2756.25	506.464
2755.59	480.128
2754.92	513.806
2754.25	513.725
2753.59	524.892
2752.92	524.81
2752.25	509.735
2751.59	517.15
2750.92	475.853
2750.25	636.868
2749.59	573.091
2748.92	520.57
2748.25	595.378
2747.58	557.845
2746.91	557.758
2746.25	591.355
2745.58	591.262
2744.91	598.652
2744.24	587.335
2743.57	579.762
2742.91	624.548
2742.24	609.493
2741.57	575.75
2740.9	627.992
2740.23	669.005
2739.56	668.9
2738.89	694.948
2738.22	754.61
2737.55	638.703
2736.88	687.151
2736.21	694.511
2735.54	728.002
2734.88	735.353
2734.21	697.915
2733.54	757.511
2732.87	664.117
2732.2	757.272
2731.52	745.964
2730.85	719.742
2730.18	768.101
2729.51	708.331
2728.84	652.307
2728.17	678.293
2727.5	704.27
2726.83	726.513
2726.16	689.148
2725.49	614.548
2724.82	662.863
2724.14	632.972
2723.47	692.436
2722.8	655.105
2722.13	707.105
2721.46	617.689
2720.79	651.075
2720.11	613.774
2719.44	598.801
2718.77	598.706
2718.1	531.686
2717.42	635.693
2716.75	587.273
2716.08	594.613
2715.41	542.498
2714.73	605.571
2714.06	590.617
2713.39	594.238
2712.71	527.303
2712.04	616.327
2711.37	541.986
2710.69	504.784
2710.02	549.237
2709.35	615.939
2708.67	619.551
2708	571.233
2707.32	574.851
2706.65	604.426
2705.98	582.085
2705.3	619.063
2704.63	633.791
2703.95	581.81
2703.28	515.024
2702.6	555.694
2701.93	596.35
2701.25	640.698
2700.58	614.677
2699.9	551.641
2699.23	577.466
2698.55	629.19
2697.88	625.39
2697.2	610.492
2696.52	617.794
2695.85	613.998
2695.17	617.599
2694.5	617.502
2693.82	665.465
2693.14	584.039
2692.47	620.905
2691.79	609.721
2691.11	635.488
2690.44	576.282
2689.76	679.609
2689.08	631.494
2688.41	642.471
2687.73	671.904
2687.05	631.194
2686.37	620.023
2685.7	653.135
2685.02	656.721
2684.34	627.107
2683.66	660.202
2682.99	645.347
2682.31	553.067
2681.63	626.71
2680.95	593.438
2680.27	663.366
2679.6	666.946
2678.92	607.893
2678.24	670.419
2677.56	545.089
2676.88	592.875
2676.2	673.783
2675.52	581.644
2674.84	622.04
2674.16	677.143
2673.48	669.677
2672.8	603.35
2672.12	570.149
2671.45	654.648
2670.77	702.348
2670.09	672.824
2669.41	632.281
2668.72	698.34
2668.04	672.505
2667.36	643.004
2666.68	650.25
2666	642.801
2665.32	701.46
2664.64	690.333
2663.96	701.238
2663.28	690.114
2662.6	671.654
2661.92	686.226
2661.24	689.787
2660.55	667.667
2659.87	722.58
2659.19	759.139
2658.51	722.351
2657.83	725.903
2657.15	696.463
2656.46	743.998
2655.78	798.846
2655.1	732.771
2654.42	750.971
2653.73	794.804
2653.05	717.774
2652.37	732.306
2651.69	765.139
2651	797.961
2650.32	695.361
2649.64	790.39
2648.95	724.409
2648.27	749.901
2647.59	775.384
2646.9	786.232
2646.22	734.919
2645.53	753.081
2644.85	807.789
2644.17	789.388
2643.48	767.339
2642.8	697.803
2642.11	796.319
2641.43	825.41
2640.74	726.684
2640.06	752.127
2639.37	722.803
2638.69	751.888
2638	759.068
2637.32	766.245
2636.63	729.641
2635.95	795.183
2635.26	780.468
2634.58	769.405
2633.89	794.804
2633.21	838.422
2632.52	838.289
2631.83	790.782
2631.15	797.944
2630.46	830.604
2629.78	896.036
2629.09	870.401
2628.4	892.11
2627.72	873.765
2627.03	917.308
2626.34	880.767
2625.66	949.767
2624.97	960.532
2624.28	851.245
2623.59	992.962
2622.91	945.528
2622.22	949.013
2621.53	970.676
2620.84	876.014
2620.16	959.464
2619.47	1039.25
2618.78	984.592
2618.09	1013.5
2617.4	1016.97
2616.71	1013.17
2616.03	983.966
2615.34	1020.11
2614.65	983.654
2613.96	1052.45
2613.27	1052.28
2612.58	1033.98
2611.89	1022.93
2611.2	1066.29
2610.51	1047.99
2609.82	1058.7
2609.13	1025.91
2608.44	1083.73
2607.75	1083.56
2607.06	1021.79
2606.37	1061.48
2605.68	1025.09
2604.99	1050.28
2604.3	1050.11
2603.61	1046.32
2602.92	1024.44
2602.23	1071.33
2601.54	1063.92
2600.85	969.676
2600.16	951.434
2599.47	976.602
2598.78	925.816
2598.09	961.828
2597.39	947.213
2596.7	932.604
2596.01	983.054
2595.32	979.284
2594.63	917.707
2593.93	885.049
2593.24	939.086
2592.55	920.88
2591.86	913.512
2591.17	938.637
2590.47	920.44
2589.78	916.685
2589.09	981.49
2588.39	948.863
2587.7	991.999
2587.01	941.348
2586.31	962.835
2585.62	930.231
2584.93	908.453
2584.23	987.605
2583.54	969.429
2582.85	897.21
2582.15	943.901
2581.46	965.364
2580.76	936.398
2580.07	878.633
2579.38	896.495
2578.68	881.953
2577.99	896.209
2577.29	906.863
2576.6	888.728
2575.9	892.184
2575.21	906.429
2574.51	935.056
2573.82	834.224
2573.12	913.186
2572.43	884.283
2571.73	833.825
2571.03	894.782
2570.34	923.383
2569.64	908.866
2568.95	869.212
2568.25	904.985
2567.55	836.619
2566.86	919.057
2566.16	832.762
2565.47	839.807
2564.77	839.673
2564.07	843.127
2563.37	860.929
2562.68	853.618
2561.98	871.412
2561.28	856.931
2560.59	846.04
2559.89	813.646
2559.19	763.343
2558.49	788.304
2557.8	748.769
2557.1	716.411
2556.4	787.926
2555.7	798.543
2555	798.416
2554.3	769.65
2553.61	755.21
2552.91	765.826
2552.21	729.923
2551.51	733.384
2550.81	665.305
2550.11	754.608
2549.41	740.184
2548.71	679.287
2548.01	739.948
2547.31	732.681
2546.62	771.873
2545.92	685.999
2545.22	668.028
2544.52	707.211
2543.82	674.957
2543.12	639.143
2542.42	678.311
2541.72	699.62
2541.01	670.957
2540.31	681.555
2539.61	635.064
2538.91	631.396
2538.21	645.561
2537.51	656.156
2536.81	691.706
2536.11	655.947
2535.41	702.178
2534.71	669.992
2534	648.506
2533.3	673.34
2532.6	666.109
2531.9	687.371
2531.2	687.261
2530.49	708.513
2529.79	736.878
2529.09	690.491
2528.39	750.877
2527.68	757.873
2526.98	718.619
2526.28	707.834
2525.58	689.938
2524.87	668.493
2524.17	664.831
2523.47	725.154
2522.76	693.051
2522.06	668.065
2521.36	760.336
2520.65	746.004
2519.95	745.885
2519.24	688.945
2518.54	703.038
2517.84	653.223
2517.13	624.722
2516.43	688.504
2515.72	695.491
2515.02	617.327
2514.31	673.984
2513.61	680.97
2512.9	687.953
2512.2	606.294
2511.49	641.647
2510.79	680.534
2510.08	680.425
2509.38	690.945
2508.67	687.292
2507.96	662.387
2507.26	694.155
2506.55	623.223
2505.85	566.476
2505.14	715.061
2504.43	679.553
2503.73	626.362
2503.02	658.106
2502.31	650.925
2501.61	714.488
2500.9	657.789
2500.19	717.795
2499.49	707.073
2498.78	706.96
2498.07	629.094
2497.36	685.531
2496.66	678.355
2495.95	717.104
2495.24	695.797
2494.53	709.811
2493.83	663.797
2493.12	776.659
2492.41	741.237
2491.7	751.706
2490.99	719.828
2490.28	754.993
2489.57	740.762
2488.87	719.482
2488.16	761.682
2487.45	750.982
2486.74	817.84
2486.03	867.053
2485.32	789.385
2484.61	806.876
2483.9	810.269
2483.19	785.483
2482.48	859.314
2481.77	823.964
2481.06	763.98
2480.35	770.898
2479.64	816.528
2478.93	876.219
2478.22	763.49
2477.51	837.241
2476.8	801.934
2476.09	791.256
2475.38	815.741
2474.66	724.206
2473.95	759.239
2473.24	745.06
2472.53	790.62
2471.82	811.573
2471.11	744.7
2470.4	716.483
2469.68	797.135
2468.97	793.496
2468.26	754.753
2467.55	824.83
2466.84	747.492
2466.12	740.354
2465.41	799.875
2464.7	803.254
2463.98	796.111
2463.27	683.774
2462.56	743.265
2461.85	736.135
2461.13	736.016
2460.42	770.941
2459.7	823.372
2458.99	777.699
2458.28	749.553
2457.56	861.497
2456.85	812.338
2456.14	864.721
2455.42	840.08
2454.71	850.444
2453.99	853.806
2453.28	892.154
2452.56	832.543
2451.85	891.867
2451.13	849.76
2450.42	842.63
2449.7	908.915
2448.99	873.816
2448.27	835.234
2447.56	852.57
2446.84	827.978
2446.13	876.747
2445.41	869.621
2444.69	841.545
2443.98	862.358
2443.26	862.219
2442.55	830.668
2441.83	872.41
2441.11	812.955
2440.4	781.428
2439.68	833.621
2438.96	774.201
2438.25	868.221
2437.53	801.842
2436.81	752.913
2436.09	766.732
2435.38	777.062
2434.66	749.065
2433.94	759.394
2433.22	783.652
2432.51	800.938
2431.79	783.4
2431.07	668.393
2430.35	741.379
2429.63	709.939
2428.91	685.468
2428.2	730.584
2427.48	779.164
2426.76	671.225
2426.04	646.776
2425.32	667.532
2424.6	691.757
2423.88	691.645
2423.16	733.234
2422.44	646.254
2421.72	691.311
2421	652.992
2420.28	736.234
2419.56	673.615
2418.84	663.091
2418.12	721.993
2417.4	707.995
2416.68	614.19
2415.96	714.705
2415.24	690.307
2414.52	641.64
2413.8	714.359
2413.08	679.572
2412.36	714.128
2411.64	731.343
2410.91	672.311
2410.19	710.317
2409.47	661.701
2408.75	665.058
2408.03	644.171
2407.31	720.247
2406.58	716.668
2405.86	678.475
2405.14	782.197
2404.42	685.177
2403.69	730.045
2402.97	747.224
2402.25	702.139
2401.53	712.4
2400.8	705.37
2400.08	663.77
2399.36	691.315
2398.63	687.748
2397.91	749.835
2397.19	635.702
2396.46	673.597
2395.74	697.664
2395.01	604.314
2394.29	693.986
2393.57	659.353
2392.84	638.537
2392.12	693.649
2391.39	710.789
2390.67	641.677
2389.94	679.516
2389.22	675.957
2388.49	696.537
2387.77	737.796
2387.04	779.042
2386.32	723.771
2385.59	730.546
2384.87	647.738
2384.14	719.975
2383.41	723.303
2382.69	654.311
2381.96	702.41
2381.24	740.165
2380.51	729.719
2379.78	674.537
2379.06	736.365
2378.33	708.722
2377.6	698.288
2376.88	739.446
2376.15	753.081
2375.42	725.454
2374.7	725.337
2373.97	690.849
2373.24	659.808
2372.51	700.933
2371.79	704.255
2371.06	693.836
2370.33	717.764
2369.6	755.418
2368.87	744.996
2368.15	665.926
2367.42	696.706
2366.69	758.36
2365.96	751.376
2365.23	740.963
2364.5	720.264
2363.77	740.722
2363.04	726.888
2362.31	723.342
2361.59	771.211
2360.86	753.951
2360.13	722.99
2359.4	722.873
2358.67	736.457
2357.94	695.24
2357.21	725.945
2356.48	736.099
2355.75	681.209
2355.02	698.211
2354.28	708.364
2353.55	728.778
2352.82	694.451
2352.09	721.701
2351.36	697.645
2350.63	772.756
2349.9	717.931
2349.17	762.251
2348.44	693.775
2347.7	707.331
2346.97	748.214
2346.24	758.34
2345.51	751.386
2344.78	710.286
2344.04	710.171
2343.31	716.883
2342.58	696.288
2341.85	682.524
2341.11	644.881
2340.38	695.949
2339.65	706.069
2338.92	777.573
2338.18	668.331
2337.45	743.227
2336.72	709.019
2335.98	674.822
2335.25	695.158
2334.51	691.638
2333.78	654.054
2333.05	766.345
2332.31	773.031
2331.58	844.408
2330.84	786.397
2330.11	748.828
2329.38	721.481
2328.64	728.169
2327.91	660.008
2327.17	673.507
2326.44	744.819
2325.7	720.894
2324.97	778.575
2324.23	751.254
2323.49	768.126
2322.76	737.417
2322.02	750.888
2321.29	716.794
2320.55	754.04
2319.81	825.234
2319.08	811.518
2318.34	831.756
2317.61	835.015
2316.87	882.392
2316.13	824.563
2315.4	814.251
2314.66	824.295
2313.92	817.378
2313.18	837.591
2312.45	830.674
2311.71	871.218
2310.97	847.35
2310.23	850.601
2309.5	843.686
2308.76	809.671
2308.02	779.055
2307.28	728.128
2306.54	785.573
2305.8	778.674
2305.07	751.468
2304.33	670.119
2303.59	727.536
2302.85	693.584
2302.11	679.94
2301.37	669.682
2300.63	649.283
2299.89	642.415
2299.15	672.736
2298.41	655.726
2297.67	645.481
2296.93	665.649
2296.19	604.73
2295.45	638.41
2294.71	658.569
2293.97	614.564
2293.23	644.85
2292.49	610.989
2291.75	654.765
2291.01	631.037
2290.27	654.552
2289.53	691.553
2288.79	637.474
2288.05	640.742
2287.3	640.638
2286.56	667.503
2285.82	707.842
2285.08	663.915
2284.34	626.742
2283.6	643.484
2282.85	653.485
2282.11	629.803
2281.37	653.272
2280.63	632.964
2279.88	632.861
2279.14	599.1
2278.4	619.194
2277.65	615.728
2276.91	655.997
2276.17	702.979
2275.43	682.686
2274.68	685.937
2273.94	625.311
2273.19	658.823
2272.45	668.798
2271.71	591.403
2270.96	732.414
2270.22	618.083
2269.47	708.664
2268.73	695.116
2267.98	637.925
2267.24	688.175
2266.5	667.925
2265.75	657.748
2265	654.285
2264.26	711.209
2263.51	690.968
2262.77	596.952
2262.02	643.798
2261.28	633.635
2260.53	660.348
2259.79	680.349
2259.04	673.536
2258.29	649.973
2257.55	653.217
2256.8	713.397
2256.05	659.701
2255.31	622.763
2254.56	662.833
2253.81	686.154
2253.07	659.27
2252.32	679.238
2251.57	632.29
2250.83	668.981
2250.08	622.051
2249.33	611.917
2248.58	692.056
2247.83	655.173
2247.09	715.224
2246.34	695.058
2245.59	621.44
2244.84	698.171
2244.09	691.377
2243.34	647.851
2242.6	651.084
2241.85	620.932
2241.1	597.466
2240.35	664.113
2239.6	664.005
2238.85	710.602
2238.1	673.794
2237.35	710.369
2236.6	656.901
2235.85	736.809
2235.1	713.354
2234.35	669.91
2233.6	689.794
2232.85	699.677
2232.1	699.562
2231.35	626.172
2230.6	745.955
2229.85	729.185
2229.1	715.749
2228.35	692.332
2227.59	752.122
2226.84	665.486
2226.09	718.607
2225.34	705.184
2224.59	708.394
2223.84	691.652
2223.08	684.889
2222.33	668.156
2221.58	754.461
2220.83	721.106
2220.08	714.343
2219.32	690.972
2218.57	680.894
2217.82	757.163
2217.06	697.273
2216.31	733.676
2215.56	716.96
2214.81	700.249
2214.05	733.316
2213.3	766.372
2212.54	749.66
2211.79	762.804
2211.04	722.887
2210.28	799.023
2209.53	739.224
2208.77	828.59
2208.02	848.337
2207.27	834.945
2206.51	821.557
2205.76	861.169
2205	894.144
2204.25	920.486
2203.49	910.403
2202.74	900.324
2201.98	853.843
2201.22	876.866
2200.47	893.264
2199.71	863.346
2198.96	763.986
2198.2	803.541
2197.45	833.165
2196.69	786.749
2195.93	783.315
2195.18	839.364
2194.42	849.138
2193.66	766.411
2192.91	759.68
2192.15	795.881
2191.39	805.656
2190.63	815.428
2189.88	798.79
2189.12	745.855
2188.36	772.13
2187.6	755.507
2186.85	758.682
2186.09	748.663
2185.33	771.622
2184.57	781.386
2183.81	731.811
2183.05	718.507
2182.3	797.478
2181.54	708.387
2180.78	731.33
2180.02	718.035
2179.26	767.315
2178.5	724.384
2177.74	783.523
2176.98	743.895
2176.22	724.027
2175.46	793.008
2174.7	763.268
2173.94	749.985
2173.18	726.839
2172.42	759.603
2171.66	746.327
2170.9	696.895
2170.14	736.221
2169.38	729.528
2168.62	739.264
2167.86	726.002
2167.1	821.135
2166.34	669.936
2165.57	771.612
2164.81	672.998
2164.05	768.076
2163.29	715.44
2162.53	744.854
2161.77	721.766
2161	797.092
2160.24	728.088
2159.48	800.109
2158.72	796.698
2157.95	734.284
2157.19	721.053
2156.43	727.488
2155.66	743.751
2154.9	737.076
2154.14	769.708
2153.38	841.627
2152.61	798.923
2151.85	802.065
2151.08	756.108
2150.32	752.711
2149.56	736.226
2148.79	811.351
2148.03	693.46
2147.26	729.321
2146.5	755.361
2145.73	693.117
2144.97	722.423
2144.2	741.914
2143.44	797.344
2142.67	764.54
2141.91	774.214
2141.14	747.957
2140.38	773.959
2139.61	809.747
2138.85	796.555
2138.08	718.087
2137.31	737.55
2136.55	770.058
2135.78	740.569
2135.02	740.447
2134.25	763.154
2133.48	746.724
2132.72	766.162
2131.95	772.555
2131.18	814.797
2130.41	749.49
2129.65	775.431
2128.88	759.015
2128.11	794.717
2127.34	752.251
2126.58	778.175
2125.81	774.791
2125.04	810.467
2124.27	836.368
2123.5	793.93
2122.74	806.812
2121.97	780.657
2121.2	816.302
2120.43	790.154
2119.66	806.279
2118.89	874.408
2118.12	747.512
2117.35	825.376
2116.58	734.269
2115.81	815.358
2115.04	821.719
2114.27	798.852
2113.5	795.473
2112.73	749.893
2111.96	736.786
2111.19	769.117
2110.42	788.458
2109.65	765.618
2108.88	768.735
2108.11	742.664
2107.34	804.149
2106.57	755.386
2105.8	800.642
2105.03	758.377
2104.25	790.656
2103.48	761.366
2102.71	767.719
2101.94	822.651
2101.17	760.988
2100.39	773.813
2099.62	767.211
2098.85	786.504
2098.08	783.137
2097.31	786.243
2096.53	834.639
2095.76	766.576
2094.99	818.193
2094.21	756.622
2093.44	766.196
2092.67	788.695
2091.89	765.942
2091.12	778.74
2090.35	749.534
2089.57	788.173
2088.8	746.057
2088.02	794.37
2087.25	839.439
2086.47	826.388
2085.7	787.52
2084.93	774.482
2084.15	774.354
2083.38	770.999
2082.6	774.097
2081.82	802.993
2081.05	857.673
2080.27	796.279
2079.5	825.156
2078.72	792.792
2077.95	782.994
2077.17	798.973
2076.39	782.735
2075.62	798.708
2074.84	801.795
2074.07	798.443
2073.29	753.245
2072.51	756.338
2071.74	830.225
2070.96	842.957
2070.18	797.781
2069.4	820.163
2068.63	778.222
2067.85	816.676
2067.07	810.111
2066.29	822.833
2065.52	848.406
2064.74	812.921
2063.96	825.636
2063.18	870.468
2062.4	847.843
2061.62	834.858
2060.85	844.351
2060.07	863.471
2059.29	844.071
2058.51	847.14
2057.73	834.166
2056.95	859.69
2056.17	753.707
2055.39	817.717
2054.61	833.612
2053.83	839.885
2053.05	833.335
2052.27	897.289
2051.49	820.242
2050.71	861.752
2049.93	778.33
2049.15	797.416
2048.37	835.707
2047.59	854.776
2046.81	854.634
2046.03	819.288
2045.24	841.551
2044.46	927.792
2043.68	850.867
2042.9	837.933
2042.12	834.596
2041.34	869.626
2040.55	898.251
2039.77	866.141
2038.99	853.215
2038.21	817.928
2037.42	884.876
2036.64	919.862
2035.86	903.742
2035.08	894.013
2034.29	820.44
2033.51	884.14
2032.73	883.993
2031.94	851.938
2031.16	851.797
2030.37	966.485
2029.59	889.784
2028.81	873.692
2028.02	914.993
2027.24	876.589
2026.45	959.307
2025.67	895.417
2024.88	876.151
2024.1	856.893
2023.31	942.744
2022.53	983.984
2021.74	916.959
2020.96	846.772
2020.17	837.083
2019.39	859.219
2018.6	903.621
2017.82	932.102
2017.03	900.139
2016.24	928.611
2015.46	906.199
2014.67	937.839
2013.89	883.647
2013.1	959.773
2012.31	981.856
2011.52	860.966
2010.74	937.058
2009.95	905.143
2009.16	898.641
2008.38	927.065
2007.59	996.746
2006.8	923.582
2006.01	961.508
2005.22	935.965
2004.44	916.776
2003.65	945.168
2002.86	906.957
2002.07	894.123
2001.28	928.845
2000.49	887.486
1999.71	976.071
1998.92	918.875
1998.13	950.402
1997.34	880.559
1996.55	893.08
1995.76	930.928
1994.97	943.436
1994.18	905.294
1993.39	958.945
1992.6	968.278
1991.81	983.935
1991.02	920.506
1990.23	929.841
1989.44	954.983
1988.65	1008.57
1987.86	967.309
1987.07	951.344
1986.27	1004.91
1985.48	941.548
1984.69	969.822
1983.9	960.185
1983.11	950.55
1982.32	975.651
1981.53	991.273
1980.73	905.885
1979.94	1003.57
1979.15	1016.02
1978.36	968.527
1977.56	977.828
1976.77	1072.28
1975.98	1009.03
1975.18	1040.39
1974.39	983.479
1973.6	1081.02
1972.81	1068.23
1972.01	1162.57
1971.22	1102.52
1970.42	1118.09
1969.63	1180.88
1968.84	1171.24
1968.04	1196.23
1967.25	1148.81
1966.45	1107.71
1965.66	1132.7
1964.86	1255.2
1964.07	1229.83
1963.27	1245.34
1962.48	1182.25
1961.68	1188.34
1960.89	1210.14
1960.09	1228.8
1959.3	1241.16
1958.5	1266.09
1957.71	1243.89
1956.91	1202.85
1956.11	1171.25
1955.32	1205.59
1954.52	1183.41
1953.72	1114.17
1952.93	1214.4
1952.13	1160.86
1951.33	1110.47
1950.54	1169.88
1949.74	1194.77
1948.94	1147.54
1948.14	1131.67
1947.35	1109.54
1946.55	1137.56
1945.75	1087.24
1944.95	1137.18
1944.16	1130.72
1943.36	1152.46
1942.56	1192.97
1941.76	1142.68
1940.96	1233.26
1940.16	1189.24
1939.36	1154.62
1938.56	1270.18
1937.77	1360.68
1936.97	1197.82
1936.17	1219.51
1935.37	1219.31
1934.57	1300.38
1933.77	1231.4
1932.97	1287.44
1932.17	1249.73
1931.37	1330.74
1930.57	1343.01
1929.77	1299.07
1928.96	1345.69
1928.16	1351.7
1927.36	1314.02
1926.56	1329.4
1925.76	1313.58
1924.96	1347.68
1924.16	1313.14
1923.36	1231.84
1922.55	1206.69
1921.75	1284.42
1920.95	1206.28
1920.15	1209.2
1919.35	1215.22
1918.54	1146.48
1917.74	1161.86
1916.94	1261.33
1916.14	1289.14
1915.33	1176.84
1914.53	1176.65
1913.73	1160.89
1912.92	1142.02
1912.12	1160.5
1911.32	1091.87
1910.51	1191.21
1909.71	1047.96
1908.9	1119.3
1908.1	1156.42
1907.29	1209.06
1906.49	1162.24
1905.69	1199.33
1904.88	1077.97
1904.08	1136.81
1903.27	1164.57
1902.47	1142.64
1901.66	1151.76
1900.86	1216.75
1900.05	1138.96
1899.24	1113.94
1898.44	1200.62
1897.63	1172.5
1896.83	1218.83
1896.02	1190.71
1895.21	1150.21
1894.41	1150.02
1893.6	1199.41
1892.79	1174.42
1891.99	1149.44
1891.18	1124.46
1890.37	1161.44
1889.57	1102.41
1888.76	1204.39
1887.95	1194.9
1887.14	1194.7
1886.33	1169.74
1885.53	1197.39
1884.72	1144.6
1883.91	1138.22
1883.1	1243.18
1882.29	1196.59
1881.48	1112.92
1880.68	1174.55
1879.87	1220.71
1879.06	1217.41
1878.25	1189.4
1877.44	1195.38
1876.63	1244.59
1875.82	1228.94
1875.01	1176.25
1874.2	1219.27
1873.39	1265.36
1872.58	1203.43
1871.77	1203.23
1870.96	1243.13
1870.15	1267.59
1869.34	1214.95
1868.53	1208.58
1867.72	1183.72
1866.9	1143.45
1866.09	1167.91
1865.28	1213.93
1864.47	1266.1
1863.66	1185.8
1862.85	1197.92
1862.04	1243.9
1861.22	1191.36
1860.41	1237.33
1859.6	1206.34
1858.79	1218.45
1857.97	1141.33
1857.16	1276.48
1856.35	1251.66
1855.53	1171.5
1854.72	1285.06
1853.91	1247.95
1853.09	1210.86
1852.28	1192.22
1851.47	1256.54
1850.65	1210.25
1849.84	1200.83
1849.03	1219.05
1848.21	1212.71
1847.4	1233.99
1846.58	1261.41
1845.77	1224.37
1844.95	1242.57
1844.14	1257.7
1843.32	1251.35
1842.51	1251.14
1841.69	1235.6
1840.88	1296.7
1840.06	1216.79
1839.24	1284.01
1838.43	1228.64
1837.61	1298.89
1836.8	1381.37
1835.98	1258.64
1835.16	1310.48
1834.35	1350.05
1833.53	1313.1
1832.71	1288.39
1831.9	1263.7
1831.08	1407.27
1830.26	1391.74
1829.44	1425.14
1828.63	1403.5
1827.81	1397.15
1826.99	1436.65
1826.17	1402.79
1825.35	1362.83
1824.54	1542.85
1823.72	1466.22
1822.9	1536.22
1822.08	1465.73
1821.26	1462.43
1820.44	1489.65
1819.62	1584.01
1818.8	1455.58
1817.99	1485.84
1817.17	1525.25
1816.35	1515.84
1815.53	1512.54
1814.71	1530.57
1813.89	1557.75
1813.07	1536.15
1812.25	1557.22
1811.42	1611.8
1810.6	1507.95
1809.78	1516.84
1808.96	1510.49
1808.14	1568.08
1807.32	1531.29
1806.5	1482.33
1805.68	1612.94
1804.86	1560.94
1804.03	1563.72
1803.21	1450.91
1802.39	1465.87
1801.57	1426.09
1800.75	1507.93
1799.92	1422.57
1799.1	1452.72
1798.28	1479.82
1797.45	1503.87
1796.63	1394.26
1795.81	1515.51
1794.99	1481.85
1794.16	1348.01
1793.34	1429.75
1792.51	1426.47
1791.69	1389.81
1790.87	1447.22
1790.04	1413.61
1789.22	1434.6
1788.39	1373.71
1787.57	1382.57
1786.74	1433.87
1785.92	1482.12
1785.1	1363.69
1784.27	1399.81
1783.44	1405.63
1782.62	1441.74
1781.79	1402.13
1780.97	1389.78
1780.14	1422.84
1779.32	1437.74
1778.49	1437.49
1777.66	1422.12
1776.84	1440.03
1776.01	1394.42
1775.18	1472.81
1774.36	1457.44
1773.53	1484.4
1772.7	1493.22
1771.88	1474.83
1771.05	1441.34
1770.22	1398.8
1769.39	1446.89
1768.57	1501.01
1767.74	1389.03
1766.91	1455.21
1766.08	1497.23
1765.25	1478.87
1764.43	1460.51
1763.6	1526.64
1762.77	1469.06
1761.94	1517.07
1761.11	1486.66
1760.28	1471.33
1759.45	1492.18
1758.62	1494.94
1757.79	1458.52
1756.96	1503.47
1756.13	1572.5
1755.3	1578.26
1754.47	1448.5
1753.64	1493.42
1752.81	1490.15
1751.98	1544.08
1751.15	1519.74
1750.32	1546.56
1749.49	1507.19
1748.66	1564.08
1747.83	1536.75
1746.99	1560.54
1746.16	1554.27
1745.33	1547.99
1744.5	1595.81
1743.67	1649.62
1742.84	1589.26
1742	1640.05
1741.17	1612.74
1740.34	1513.38
1739.51	1567.16
1738.67	1569.9
1737.84	1596.64
1737.01	1575.36
1736.17	1569.1
1735.34	1601.82
1734.51	1604.55
1733.67	1592.28
1732.84	1610
1732	1618.72
1731.17	1576.48
1730.34	1618.17
1729.5	1638.87
1728.67	1494.8
1727.83	1584.4
1727	1629.04
1726.16	1526.97
1725.33	1586.58
1724.49	1529.44
1723.66	1601
1722.82	1591.75
1721.99	1513.7
1721.15	1648.04
1720.31	1540.1
1719.48	1647.48
1718.64	1644.21
1717.8	1649.9
1716.97	1667.55
1716.13	1586.6
1715.29	1481.77
1714.46	1624.88
1713.62	1669.4
1712.78	1666.13
1711.95	1719.59
1711.11	1662.58
1710.27	1620.52
1709.43	1724.67
1708.59	1616.98
1707.76	1733.03
1706.92	1717.83
1706.08	1738.41
1705.24	1756
1704.4	1782.53
1703.56	1677.91
1702.72	1778.94
1701.89	1733.94
1701.05	1736.63
1700.21	1804.83
1699.37	1846.21
1698.53	1860.78
1697.69	1997.39
1696.85	2023.84
1696.01	1862.81
1695.17	2005.3
1694.33	2028.75
1693.49	1903.49
1692.65	1995.35
1691.81	2060.42
1690.96	2125.47
1690.12	2157.8
1689.28	2047.48
1688.44	2174.89
1687.6	2272.55
1686.76	2194.93
1685.92	2191.59
1685.07	2312.95
1684.23	2300.68
1683.39	2338.87
1682.55	2424.53
1681.7	2311.37
1680.86	2352.5
1680.02	2313.54
1679.18	2313.15
1678.33	2333.51
1677.49	2247.14
1676.65	2300.1
1675.8	2332.31
1674.96	2290.43
1674.11	2293
1673.27	2363.7
1672.43	2321.83
1671.58	2333.28
1670.74	2356.56
1669.89	2234.8
1669.05	2272.89
1668.2	2337.6
1667.36	2310.57
1666.51	2360.46
1665.67	2277.25
1664.82	2282.77
1663.98	2394.73
1663.13	2323.38
1662.28	2278.65
1661.44	2485.1
1660.59	2484.68
1659.75	2543.33
1658.9	2622.64
1658.05	2701.92
1657.21	2902.22
1656.36	2875.15
1655.51	3078.31
1654.67	3148.6
1653.82	3555.21
1652.97	3522.16
1652.12	3787
1651.27	4107.77
1650.43	4077.59
1649.58	4356.93
1648.73	4309.03
1647.88	4334.81
1647.03	4366.48
1646.19	4424.65
1645.34	4235.39
1644.49	4128.65
1643.64	3977.78
1642.79	3962.38
1641.94	3891.06
1641.09	3702.05
1640.24	3574.9
1639.39	3680.19
1638.54	3664.85
1637.69	3502.48
1636.84	3584.21
1635.99	3565.95
1635.14	3600.61
1634.29	3667.59
1633.44	3728.66
1632.59	3769.15
1631.74	3797.88
1630.88	3905.88
1630.03	4043.22
1629.18	4063.07
1628.33	4215.01
1627.48	4331.68
1626.63	4595.01
1625.77	4899.33
1624.92	4965.96
1624.07	5287.7
1623.22	5389.42
1622.36	5614.24
1621.51	6003.13
1620.66	6342.06
1619.8	6607.62
1618.95	6826.21
1618.1	7261.49
1617.24	7635.11
1616.39	8275.08
1615.54	9055.35
1614.68	9885.11
1613.83	10711.7
1612.97	12366
1612.12	14204.2
1611.26	16237.7
1610.41	18799.8
1609.55	22624.3
1608.7	26795.4
1607.84	32169.4
1606.99	38544.1
1606.13	44609.7
1605.28	50179.5
1604.42	55455.2
1603.57	58345.9
1602.71	58864.4
1601.85	55864.5
1601	50702.6
1600.14	44386.7
1599.28	37737.4
1598.43	31671
1597.57	26198.8
1596.71	22358.9
1595.86	19605.2
1595	16919.4
1594.14	15275.3
1593.28	14060.2
1592.42	12839.6
1591.57	12455.7
1590.71	11975.8
1589.85	12361.2
1588.99	13544.3
1588.13	15096.7
1587.27	17944.1
1586.42	21739.4
1585.56	25635.2
1584.7	28456
1583.84	28951.5
1582.98	27838.3
1582.12	24311.8
1581.26	20242.8
1580.4	16364.1
1579.54	13265.8
1578.68	11156.5
1577.82	9742.5
1576.96	8610.73
1576.1	7915.05
1575.24	7350.29
1574.38	6582.47
1573.51	6096.52
1572.65	5709.42
1571.79	5305.04
1570.93	4909.51
1570.07	4818.73
1569.21	4524.94
1568.34	4353.05
1567.48	4224.72
1566.62	4166.01
1565.76	3939.2
1564.89	3929.82
1564.03	3595.92
1563.17	3653.24
1562.31	3530.96
1561.44	3472.42
1560.58	3364.69
1559.72	3239.62
1558.85	3140.64
1557.99	3140.1
1557.12	3096.15
1556.26	3130.34
1555.4	3097.98
1554.53	3036.71
1553.67	2989.92
1552.8	2937.36
1551.94	2870.37
1551.07	2861.21
1550.21	2863.6
1549.34	2796.66
1548.48	2749.96
1547.61	2752.37
1546.74	2829.86
1545.88	2734.1
1545.01	2843.32
1544.15	2652.34
1543.28	2726.91
1542.41	2662.96
1541.55	2627.89
1540.68	2688
1539.81	2638.52
1538.95	2652.47
1538.08	2729.85
1537.21	2614.09
1536.34	2590.59
1535.48	2584.38
1534.61	2566.64
1533.74	2612.28
1532.87	2562.88
1532	2571.07
1531.14	2625.32
1530.27	2503.99
1529.4	2584.13
1528.53	2554.91
1527.66	2560.22
1526.79	2554.02
1525.92	2516.2
1525.05	2584.77
1524.18	2710.8
1523.31	2581
1522.44	2594.92
1521.57	2491.04
1520.7	2464.75
1519.83	2602.19
1518.96	2641.94
1518.09	2566.83
1517.22	2494.62
1516.35	2537.24
1515.48	2482.28
1514.61	2504.8
1513.73	2547.4
1512.86	2452.31
1511.99	2560.86
1511.12	2531.74
1510.25	2531.3
1509.37	2505.07
1508.5	2513.23
1507.63	2570.1
1506.76	2655.6
1505.88	2586.4
1505.01	2551.58
1504.14	2642.76
1503.26	2622.27
1502.39	2607.5
1501.52	2710.07
1500.64	2683.85
1499.77	2960.88
1498.9	3054.75
1498.02	3188.63
1497.15	3482.58
1496.27	3790.73
1495.4	4058.75
1494.52	4103.77
1493.65	4097.34
1492.77	3845.23
1491.9	3581.79
1491.02	3261.32
1490.15	3117.99
1489.27	3051.78
1488.4	2994.17
1487.52	2888.06
1486.64	2953.18
1485.77	2818.59
1484.89	2897.96
1484.01	2923.13
1483.14	2825.68
1482.26	2933.52
1481.38	2941.56
1480.51	3043.64
1479.63	3105.8
1478.75	3128.05
1477.87	3104.72
1477	3146.9
1476.12	3117.88
1475.24	3262.53
1474.36	3233.5
1473.48	3383.77
1472.6	3297.82
1471.73	3530.53
1470.85	3421.83
1469.97	3668.65
1469.09	3690.76
1468.21	3857.86
1467.33	4070.37
1466.45	4228.81
1465.57	4381.51
1464.69	4738.71
1463.81	5061.7
1462.93	5339.14
1462.05	5755.61
1461.17	6373.51
1460.29	7039.44
1459.41	8011.65
1458.53	8946.63
1457.64	10136.6
1456.76	11601.3
1455.88	12943.6
1455	14052.9
1454.12	15229.8
1453.24	15487.9
1452.35	16006.7
1451.47	15808.4
1450.59	16086.1
1449.71	16055
1448.82	15944.6
1447.94	15610.5
1447.06	15279.4
1446.17	14716.3
1445.29	13635.4
1444.41	13047.3
1443.52	12484.9
1442.64	11447.4
1441.76	10783.7
1440.87	10111.6
1439.99	9623.6
1439.1	9277.07
1438.22	8379.57
1437.33	7886.44
1436.45	7280.48
1435.56	6573.04
1434.68	6108.73
1433.79	5486.45
1432.91	5005.55
1432.02	4680.06
1431.14	4473.22
1430.25	4074.58
1429.36	3707.11
1428.48	3556.96
1427.59	3384.31
1426.7	3448.57
1425.82	3199.88
1424.93	3230.32
1424.04	3235.4
1423.16	3141.85
1422.27	2997.61
1421.38	2985.82
1420.49	3027.55
1419.61	2981.97
1418.72	3063.09
1417.83	3017.52
1416.94	3070.47
1416.05	3041.79
1415.17	3139.73
1414.28	3307.96
1413.39	3270.82
1412.5	3250.56
1411.61	3317.47
1410.72	3297.21
1409.83	3411.87
1408.94	3402.84
1408.05	3450.01
1407.16	3432.55
1406.27	3440.38
1405.38	3717.77
1404.49	3621.66
1403.6	3590.15
1402.71	3645.66
1401.82	3529.97
1400.93	3627.55
1400.03	3761.56
1399.14	3598.24
1398.25	3653.69
1397.36	3566.14
1396.47	3644
1395.58	3688.21
1394.68	3653.94
1393.79	3759.76
1392.9	3708.68
1392.01	3820.06
1391.11	3760.59
1390.22	3894.32
1389.33	4170.75
1388.43	4402.31
1387.54	4728.93
1386.65	4921.14
1385.75	5320.28
1384.86	5593.43
1383.97	5964.35
1383.07	6399.44
1382.18	6468.2
1381.28	6564.89
1380.39	6893.47
1379.49	7166.05
1378.6	7173.18
1377.7	7403.72
1376.81	7684.45
1375.91	7825.49
1375.02	8089.3
1374.12	7909.27
1373.22	7969.27
1372.33	7900.92
1371.43	8066.9
1370.54	8157.52
1369.64	7994.36
1368.74	8154.66
1367.85	8069.61
1366.95	8054.26
1366.05	7955.33
1365.15	7909.36
1364.26	7985.97
1363.36	7987.35
1362.46	7894.06
1361.56	7733.99
1360.67	7791.09
1359.77	7653.36
1358.87	7710.45
1357.97	7659.02
1357.07	7602.05
1356.17	7717.52
1355.27	7685.58
1354.37	7737.06
1353.47	7855.22
1352.57	7678.76
1351.68	7669.08
1350.78	7739.97
1349.88	7871.94
1348.97	7981.64
1348.07	8160.73
1347.17	8273.12
1346.27	8302.21
1345.37	8669.86
1344.47	8820.95
1343.57	9055.21
1342.67	9353.19
1341.77	9459.71
1340.87	9713.15
1339.96	10243.7
1339.06	10571.8
1338.16	10977.3
1337.26	11476.9
1336.36	12117.6
1335.45	12140.4
1334.55	12650.6
1333.65	12941.9
1332.74	13368.8
1331.84	13413.5
1330.94	13568.9
1330.03	13685.4
1329.13	13785.4
1328.23	13843.8
1327.32	13888.4
1326.42	13869.4
1325.51	13543.5
1324.61	13582.6
1323.71	13433.7
1322.8	13144
1321.9	12915.2
1320.99	12661.5
1320.09	12341.7
1319.18	11944.7
1318.27	11630.7
1317.37	11446.4
1316.46	11060.8
1315.56	10653.3
1314.65	10546.6
1313.74	10343.4
1312.84	10242.3
1311.93	10006.1
1311.02	9866.51
1310.12	9875.8
1309.21	9532.34
1308.3	9949.47
1307.39	9752.13
1306.49	9695.33
1305.58	9514.62
1304.67	9760.75
1303.76	9458.97
1302.85	9344.45
1301.95	9172.19
1301.04	9134.8
1300.13	9226.73
1299.22	8779.53
1298.31	8775.23
1297.4	8649.96
1296.49	8711.66
1295.58	8405.04
1294.67	8260.66
1293.76	8143.81
1292.85	8265.99
1291.94	7882.76
1291.03	7862.15
1290.12	7704.26
1289.21	7722.12
1288.3	7418.85
1287.39	7401.07
1286.48	7295.51
1285.57	7181.75
1284.66	7073.52
1283.74	7047.59
1282.83	7101.19
1281.92	7223.29
1281.01	6873.94
1280.1	6998.78
1279.18	6846.85
1278.27	7031.92
1277.36	7027.94
1276.44	6974.68
1275.53	6929.64
1274.62	6920.21
1273.7	6927.2
1272.79	6887.66
1271.88	6913.81
1270.96	7024.74
1270.05	7228.63
1269.14	7276.58
1268.22	7406.53
1267.31	7481.76
1266.39	7395.71
1265.48	7432.66
1264.56	7505.12
1263.65	7555.7
1262.73	7420.54
1261.82	7547.57
1260.9	7565.35
1259.98	7547.63
1259.07	7311.59
1258.15	7340.31
1257.24	7303.55
1256.32	7217.7
1255.4	7363.7
1254.49	7460.56
1253.57	7399.26
1252.65	7417.04
1251.73	7342.14
1250.82	7419.87
1249.9	7641.96
1248.98	7629.71
1248.06	7723.68
1247.15	7937.43
1246.23	7802.63
1245.31	7643.37
1244.39	7933.22
1243.47	8005.29
1242.55	7998.43
1241.63	8037.82
1240.71	7968.41
1239.79	7980.59
1238.87	8245.61
1237.96	8149.02
1237.04	8288.89
1236.12	8322.75
1235.19	8440.81
1234.27	8615.87
1233.35	8940.24
1232.43	9329.66
1231.51	9450.17
1230.59	9692.79
1229.67	10141.6
1228.75	10622.7
1227.83	10786.4
1226.91	11180.5
1225.98	11449.7
1225.06	12057.7
1224.14	12210.1
1223.22	12248.6
1222.29	12552.6
1221.37	12721.1
1220.45	12846.2
1219.53	12984.8
1218.6	13323.7
1217.68	13979.3
1216.76	14447.8
1215.83	15140.9
1214.91	16088
1213.98	17129.6
1213.06	18414.2
1212.14	19990.5
1211.21	21363.4
1210.29	23117.1
1209.36	24864.7
1208.44	27573.9
1207.51	29471.4
1206.59	31789.8
1205.66	34126.2
1204.74	36081
1203.81	37616.5
1202.88	39734.7
1201.96	41266.3
1201.03	42522.1
1200.11	43723.5
1199.18	44187.9
1198.25	45345.4
1197.32	45623.2
1196.4	45755.4
1195.47	45857.8
1194.54	45377.9
1193.62	44278.3
1192.69	42659.1
1191.76	41091.6
1190.83	39594.7
1189.9	38327.2
1188.97	37396.8
1188.05	36633.6
1187.12	36804.8
1186.19	37140
1185.26	39181.2
1184.33	40610.9
1183.4	42395.1
1182.47	43086.8
1181.54	43119.5
1180.61	41340.2
1179.68	38575
1178.75	34507.3
1177.82	30215.4
1176.89	25938.5
1175.96	22428.5
1175.03	20042.5
1174.1	17815.6
1173.17	16400.4
1172.24	15517
1171.3	14545.5
1170.37	14194.1
1169.44	13791.8
1168.51	13309.3
1167.58	13288.1
1166.64	13350.1
1165.71	13505.9
1164.78	13851.9
1163.85	14240.7
1162.91	15197.4
1161.98	16574.4
1161.05	18205.2
1160.11	20320.3
1159.18	23275.2
1158.24	26178.3
1157.31	29310.5
1156.38	31443.5
1155.44	32532.2
1154.51	31943.2
1153.57	29648.1
1152.64	26562.2
1151.7	22557.7
1150.77	18781.8
1149.83	15255.8
1148.9	13013.8
1147.96	11253.4
1147.02	10169.6
1146.09	9176.89
1145.15	8625.16
1144.22	8009.56
1143.28	7386.17
1142.34	6853.74
1141.41	6401.56
1140.47	6098.94
1139.53	5631.04
1138.59	5328.67
1137.66	5154.39
1136.72	4950.86
1135.78	4803.37
1134.84	4551.99
1133.9	4447.26
1132.97	4241.33
1132.03	4173.98
1131.09	4082.69
1130.15	4042.02
1129.21	3940.13
1128.27	4037.91
1127.33	4031.87
1126.39	4095.01
1125.45	4046.4
1124.51	4213.25
1123.57	4241.75
1122.63	4461.68
1121.69	4692.17
1120.75	4885.37
1119.81	4948.28
1118.87	5401.75
1117.93	5390.15
1116.99	5697.3
1116.05	5999.02
1115.11	6260.81
1114.16	6304.82
1113.22	6409.86
1112.28	6549.36
1111.34	6829.44
1110.39	6785.77
1109.45	7047.14
1108.51	7154.61
1107.57	7482.09
1106.62	7997.68
1105.68	8168.53
1104.74	8683.8
1103.79	9238.63
1102.85	9777.37
1101.91	9902.76
1100.96	10377.6
1100.02	10487
1099.07	10617.5
1098.13	10565.3
1097.18	10619
1096.24	10701.7
1095.29	10620.4
1094.35	10652.9
1093.4	10487.1
1092.46	10649.1
1091.51	10385.5
1090.57	10370.5
1089.62	10297.3
1088.67	10564.9
1087.73	10433.6
1086.78	10489.8
1085.83	10656.9
1084.89	10604.9
1083.94	10695.3
1082.99	10477
1082.04	10615
1081.1	10837.3
1080.15	10824.8
1079.2	10952.1
1078.25	11031.9
1077.3	10971.9
1076.36	10985.8
1075.41	11084
1074.46	11458.7
1073.51	11290.7
1072.56	11278.2
1071.61	11107.6
1070.66	11376.8
1069.71	11477.4
1068.76	11749.1
1067.81	11631.2
1066.86	11231.9
1065.91	11329.8
1064.96	11222.6
1064.01	10978.6
1063.06	10921.5
1062.11	10788.1
1061.16	10652.1
1060.21	10355.9
1059.25	10183.2
1058.3	10339
1057.35	10261
1056.4	10251.3
1055.45	10388.6
1054.49	10334.2
1053.54	10505.6
1052.59	10708.4
1051.63	10968.8
1050.68	10966.8
1049.73	11536.6
1048.78	11846.6
1047.82	12505.1
1046.87	13108.3
1045.91	13690.4
1044.96	14830.3
1044.01	15870.3
1043.05	17310.7
1042.1	19070
1041.14	22035.8
1040.19	24935
1039.23	29055.5
1038.28	34326
1037.32	41894.4
1036.36	50906.7
1035.41	60499.1
1034.45	72002.2
1033.5	81273.5
1032.54	88019
1031.58	89788.3
1030.63	88115.4
1029.67	82137.4
1028.71	72922.5
1027.76	62739.2
1026.8	53061
1025.84	43843.2
1024.88	35996.5
1023.93	30261.4
1022.97	25569.5
1022.01	22066.3
1021.05	19263.5
1020.09	17228.4
1019.13	15804.2
1018.17	14787.2
1017.22	13992.1
1016.26	13942.7
1015.3	14370.1
1014.34	15300.2
1013.38	16649.3
1012.42	18469.3
1011.46	21788.3
1010.5	26225.7
1009.54	33162.7
1008.58	43371
1007.61	59409.1
1006.65	84965.2
1005.69	123733
1004.73	0
1003.77	0
1002.81	0
1001.85	0
1000.88	0
999.922	0
998.959	0
997.997	0
997.034	115381
996.071	82930.4
995.108	62496.8
994.145	49656.7
993.181	41777.5
992.218	37668.2
991.254	35425.5
990.29	34197.6
989.326	32726.4
988.362	29746.8
987.397	26281
986.432	22878.7
985.468	19749.7
984.503	17455.9
983.537	15787.3
982.572	14556.9
981.607	13438.3
980.641	12793.9
979.675	11771.8
978.709	11202.9
977.743	10473.8
976.776	9773.45
975.81	9122.48
974.843	8440.72
973.876	8201.33
972.909	7897.39
971.942	7764.15
970.974	7465.58
970.007	7417.72
969.039	7351.8
968.071	7466.7
967.103	7300.09
966.134	7430.44
965.166	7418.77
964.197	7370.98
963.228	7163.22
962.259	7081.94
961.29	6575.09
960.321	6251.52
959.351	6080.21
958.382	5785.21
957.412	5485.16
956.442	5507.37
955.471	5202.32
954.501	5301.86
953.53	5218.47
952.56	5181.48
951.589	5152.22
950.618	5104.95
949.646	5217.28
948.675	5167.44
947.703	5202.53
946.731	5142.42
945.759	5154.35
944.787	4955.41
943.815	5173.05
942.842	5046.16
941.87	5099.22
940.897	5021.2
939.924	4961.2
938.951	5009.11
937.977	4954.27
937.004	4755.65
936.03	4739.39
935.056	4751.36
934.082	4650.41
933.107	4739.38
932.133	4733.39
931.158	4727.41
930.184	4752.2
929.209	4679.54
928.233	4614.6
927.258	4859.83
926.283	4682.12
925.307	4881.13
924.331	4887.94
923.355	4963.89
922.379	4991.16
921.402	5228.38
920.426	5153.19
919.449	5303.27
918.472	5458.41
917.495	5575.11
916.518	5883.63
915.54	6225.29
914.563	6277.86
913.585	6780.4
912.607	7037.35
911.629	7345.32
910.65	7571.42
909.672	8047.8
908.693	8120.42
907.714	8576.1
906.735	8796.7
905.756	8884.46
904.776	8745.01
903.797	8830.2
902.817	8473.92
901.837	8191.76
900.857	7815.32
899.877	7663.44
898.896	7154.64
897.915	6862.72
896.935	6667.77
895.954	6460.14
894.972	6290.8
893.991	6264.19
893.01	6329.27
892.028	6361.23
891.046	6230.22
890.064	6165.45
889.082	6225.42
888.099	6170.85
887.116	6233.33
886.134	6122.82
885.151	6330.26
884.168	6125.68
883.184	6327.96
882.201	6560.67
881.217	6442.57
880.233	6560.82
879.249	6590.12
878.265	6667.66
877.28	6851.84
876.296	6848.06
875.311	7029.6
874.326	6929.33
873.341	7131.09
872.356	7106.96
871.37	7052.39
870.385	7099.3
869.399	7057.44
868.413	7025.73
867.427	7130.92
866.44	6954.74
865.454	7153.67
864.467	7099.16
863.48	7019.34
862.493	7071.25
861.506	7140.87
860.518	7061.08
859.53	7092.7
858.543	7126.84
857.555	7009.15
856.566	7012.93
855.578	7069.84
854.59	6944.63
853.601	7163.35
852.612	6944.63
851.623	7357.89
850.634	7295.9
849.644	7580.09
848.655	7778.28
847.665	8264.34
846.675	8379
845.685	8877.4
844.694	8883.35
843.704	9280.52
842.713	9591.74
841.722	9481.5
840.731	9613.47
839.74	9351.94
838.749	8964.42
837.757	8677.9
836.765	8336.02
835.773	7906.05
834.781	7438.45
833.789	6971.02
832.796	6770.75
831.804	6381.68
830.811	6211.82
829.818	5913.62
828.824	5977.98
827.831	5896.36
826.837	5824.83
825.844	5959.62
824.85	6061.65
823.856	6148.56
822.861	6215.33
821.867	6518.37
820.872	6620.23
819.877	6943.18
818.882	7409.23
817.887	7741.98
816.892	8122.32
815.896	8675.78
814.9	9068.37
813.904	9852.39
812.908	10124.2
811.912	10669.3
810.915	11159.1
809.919	11483.1
808.922	12070.4
807.925	12461.9
806.927	13196.6
805.93	13725.6
804.932	14517.5
803.935	15467
802.937	16621.5
801.939	18349.2
800.94	19765.7
799.942	21154.2
798.943	22549.7
797.944	23932.1
796.945	25021.3
795.946	25334.5
794.947	25980.2
793.947	25892.9
792.947	25695.7
791.947	25383.4
790.947	25071.3
789.947	24397
788.946	23695.4
787.946	22804.2
786.945	22070.6
785.944	20887.8
784.942	20012.6
783.941	19057.8
782.939	17748.9
781.938	16782.4
780.936	16023.3
779.933	15334.4
778.931	14555.9
777.929	14104.3
776.926	13992.1
775.923	13725.3
774.92	13486
773.917	13329
772.913	13259.3
771.909	13319.2
770.906	13309.2
769.902	13610.6
768.897	13690.3
767.893	14168.1
766.889	14110.8
765.884	14974.1
764.879	14720.1
763.874	15132.8
762.869	15371.2
761.863	15579.8
760.857	15882.7
759.852	15974.2
758.846	15871.9
757.839	15796.9
756.833	15898.4
755.826	15686.8
754.82	15395.9
753.813	14995.8
752.806	14449.5
751.798	13888.4
750.791	13637.7
749.783	13399.5
748.775	12955.5
747.767	12769.6
746.759	12482.1
745.75	12380.7
744.742	12368.5
743.733	12267.1
742.724	12359
741.715	12061.9
740.706	11869
739.696	11748
738.686	11324.9
737.676	10778.2
736.666	10142.6
735.656	9366.23
734.646	8567.85
733.635	8027.02
732.624	7736.18
731.613	7321.81
730.602	7295.74
729.59	7383.38
728.579	7458.64
727.567	7709.31
726.555	8120.46
725.543	8805.63
724.531	8912.68
723.518	8715.98
722.505	8215.71
721.493	7323.17
720.48	6396.42
719.466	5657.52
718.453	5042.23
717.439	4661.48
716.425	4369.64
715.411	4206.12
714.397	4035.26
713.383	4036.98
712.368	4127.41
711.354	4005.93
710.339	4180.08
709.323	4112.82
708.308	4057.89
707.293	4000.52
706.277	4073.63
705.261	4208.23
704.245	4239.44
703.229	4445.31
702.212	4301.83
701.196	4219.89
700.179	4088.8
699.162	3940.55
698.145	3585.91
697.127	3550.84
696.11	3302.05
695.092	3021.4
694.074	2979.1
693.056	2799.29
692.038	2700.58
691.019	2692.71
690.001	2665.22
688.982	2610.75
687.963	2598
686.944	2599.98
685.924	2589.69
684.904	2608.83
683.885	2551.96
682.865	2563.75
681.845	2516.71
680.824	2545.65
679.804	2591.72
678.783	2451.64
677.762	2573.63
676.741	2609.88
675.719	2543.3
674.698	2557.52
673.676	2522.79
672.654	2544.34
671.632	2634.38
670.61	2651.01
669.588	2696.98
668.565	2738.04
667.542	2783.98
666.519	2876.32
665.496	2895.34
664.473	2894.81
663.449	2813.67
662.425	2818.04
661.401	2707.65
660.377	2707.15
659.353	2704.21
658.328	2732.99
657.304	2722.73
656.279	2661.24
655.254	2633.92
654.228	2691.96
653.203	2703.65
652.177	2637.34
651.151	2712.4
650.125	2724.08
649.099	2677.29
648.073	2818.06
647.046	2856.51
646.019	3002.06
644.992	3062.37
643.965	3217.57
642.938	3343.51
641.91	3432.91
640.883	3493.09
639.855	3660.26
638.826	3820.07
637.798	3909.31
636.77	4224.58
635.741	4469.26
634.712	4677.4
633.683	4904.89
632.654	5316.9
631.624	5808.89
630.595	6235.15
629.565	6809.33
628.535	7274.08
627.505	8173.02
626.474	9372.49
625.444	11546.7
624.413	0
623.382	0
622.351	0
621.319	0
620.288	0
619.256	0
618.224	0
617.192	0
616.16	0
615.127	0
614.094	0
613.061	0
612.028	0
610.995	0
609.962	0
608.928	0
607.894	0
606.86	0
605.826	0
604.791	0
603.757	0
602.722	0
601.687	0
600.652	0
599.616	0
598.581	0
597.545	0
596.509	0
595.473	0
594.437	0
593.4	0
592.363	0
591.326	0
590.289	0
589.252	0
588.214	0
587.177	0
586.139	0
585.101	0
584.063	0
583.024	0
581.985	0
580.947	0
579.908	0
578.868	0
577.829	0
576.789	0
575.749	0
574.709	0
573.669	0
572.629	0
571.588	0
570.547	0
569.506	0
568.465	0
567.424	0
566.382	0
565.341	0
564.299	0
563.257	0
562.214	0
561.172	0
560.129	0
559.086	0
558.043	0
557	0
555.956	0
554.912	0
553.869	0
552.824	0
551.78	0
550.736	0
549.691	0
548.646	0
547.601	0
546.556	0
545.51	0
544.465	0
543.419	0
542.373	0
541.327	0
540.28	0
539.234	0
538.187	0
537.14	0
536.093	0
535.045	0
533.998	0
532.95	0
531.902	0
530.854	0
529.805	0
528.757	0
527.708	0
526.659	0
525.61	0
524.561	0
523.511	0
522.461	0
521.411	0
520.361	0
519.311	0
518.26	0
517.21	0
516.159	0
515.108	0
514.056	0
513.005	0
511.953	0
510.901	0
509.849	0
508.797	0
507.744	0
506.692	0
505.639	0
504.586	0
503.533	0
502.479	0
501.425	0
500.372	0
499.318	0
498.263	0
497.209	0
496.154	0
495.099	0
494.044	0
492.989	0
491.934	0
490.878	0
489.822	0
488.766	0
487.71	0
486.653	0
485.597	0
484.54	0
483.483	0
482.426	0
481.368	0
480.311	0
479.253	0
478.195	0
477.137	0
476.078	0
475.02	0
473.961	0
472.902	0
471.843	0
470.783	0
469.724	0
468.664	0
467.604	0
466.544	0
465.483	0
464.423	0
463.362	0
462.301	0
461.24	0
460.178	0
459.117	0
458.055	0
456.993	0
455.931	0
454.869	0
453.806	0
452.743	0
451.68	0
450.617	0
449.554	0
448.49	0
447.426	0
446.362	0
445.298	0
444.234	0
443.169	0
442.104	0
441.04	0
439.974	0
438.909	0
437.843	0
436.778	0
435.712	0
434.645	0
433.579	0
432.513	0
431.446	0
430.379	0
429.312	0
428.244	0
427.177	0
426.109	0
425.041	0
423.973	0
422.904	0
421.836	0
420.767	0
419.698	0
418.629	0
417.559	0
416.49	0
415.42	0
414.35	0
413.28	0
412.21	0
411.139	0
410.068	0
408.997	0
407.926	0
406.855	0
405.783	0
404.711	0
403.639	0
402.567	0
401.495	0
400.422	0
399.349	0
398.276	0
397.203	0
396.13	0
395.056	0
393.982	0
392.908	0
391.834	0
390.76	0
389.685	0
388.61	0
387.535	0
386.46	0
385.384	0
384.309	0
383.233	0
382.157	0
381.081	0
380.004	0
378.928	0
377.851	0
376.774	0
375.696	0
374.619	0
373.541	0
372.463	0
371.385	0
370.307	0
369.228	0
368.15	0
367.071	0
365.992	0
364.913	0
363.833	0
362.753	0
361.673	0
360.593	0
359.513	0
358.432	0
357.352	0
356.271	0
355.19	0
354.108	0
353.027	0
351.945	0
350.863	0
349.781	0
348.699	0
347.616	0
346.533	0
345.45	0
344.367	0
343.284	0
342.2	0
341.116	0
340.032	0
338.948	0
337.864	0
336.779	0
335.694	0
334.609	0
333.524	0
332.439	0
331.353	0
330.267	0
329.181	0
328.095	0
327.009	0
325.922	0
324.835	0
323.748	0
322.661	0
321.573	0
320.485	0
319.398	0
318.309	0
317.221	0
316.133	0
315.044	0
313.955	0
312.866	0
311.777	0
310.687	0
309.597	0
308.507	0
307.417	0
306.327	0
305.236	0
304.145	0
303.054	0
301.963	0
300.872	0
299.78	0
298.688	0
297.596	0
296.504	0
295.412	0
294.319	0
293.226	0
292.133	0
291.04	0
289.946	0
288.853	0
287.759	0
286.665	0
285.57	0
284.476	0
283.381	0
282.286	0
281.191	0
280.096	0
279	0
277.904	0
276.808	0
275.712	0
274.616	0
273.519	0
272.422	0
271.325	0
270.228	0
269.131	0
268.033	0
266.935	0
265.837	0
264.739	0
263.64	0
262.542	0
261.443	0
260.344	0
259.245	0
258.145	0
257.045	0
255.945	0
254.845	0
253.745	0
252.644	0
251.543	0
250.443	0
249.341	0
248.24	0
247.138	0
246.036	0
244.934	0
243.832	0
242.73	0
241.627	0
240.524	0
239.421	0
238.318	0
237.214	0
236.111	0
235.007	0
233.903	0
232.798	0
231.694	0
230.589	0
229.484	0
228.379	0
227.273	0
226.168	0
225.062	0
223.956	0
222.85	0
221.743	0
220.637	0
219.53	0
218.423	0
217.315	0
216.208	0
215.1	0
213.992	0
212.884	0
211.776	0
210.667	0
209.558	0
208.449	0
207.34	0
206.231	0
205.121	0
204.011	0
202.901	0
201.791	0
200.681	0
199.57	0
198.459	0
197.348	0
196.237	0
195.125	0
194.013	0
192.901	0
191.789	0
190.677	0
189.564	0
188.451	0
187.338	0
186.225	0
185.112	0
183.998	0
182.884	0
181.77	0
180.656	0
179.541	0
178.427	0
177.312	0
176.197	0
175.081	0
173.966	0
172.85	0
171.734	0
170.618	0
169.501	0
168.385	0
167.268	0
166.151	0
165.033	0
163.916	0
162.798	0
161.68	0
160.562	0
159.444	0
158.325	0
157.206	0
156.087	0
154.968	0
153.849	0
152.729	0
151.609	0
150.489	0
149.369	0
148.248	0
147.128	0
146.007	0
144.886	0
143.764	0
142.643	0
141.521	0
140.399	0
139.277	0
138.154	0
137.032	0
135.909	0
134.786	0
133.662	0
132.539	0
131.415	0
130.291	0
129.167	0
128.043	0
126.918	0
125.793	0
124.668	0
123.543	0
122.418	0
121.292	0
120.166	0
119.04	0
117.914	0
116.787	0
115.66	0
114.533	0
113.406	0
112.279	0
111.151	0
110.023	0
108.895	0
107.767	0
106.639	0
105.51	0
104.381	0
103.252	0
102.123	0
100.993	0
99.8632	0
