##TITLE= saffron
##JCAMP-DX= 4.24 $$Exported Grams Data File
##DATA TYPE= RAMAN SPECTRUM
##ORIGIN= University College, London
##OWNER= Ian M. Bell, Robin J.H. Clark and Peter J. Gibbs
##NPOINTS=  668
##XUNITS= 1/CM          
##YUNITS= ABSORBANCE    
##DATE= 98/05/15
##TIME= 08:02:14.00
##SPECTROMETER/DATA SYSTEM= Renishaw Raman System 1000 (514.5 nm excitation)
##RESOLUTION= 1.000000 $$http://calcium.chem.ucl.ac.uk/webstuff/resources/raman/
##FIRSTX=  1000.1
##LASTX=  1996.201
##XFACTOR= 1.0
##YFACTOR=  9.3132E-10
##FIRSTY=  .024548
##MAXY=  1.0003                                 
##MINY=  .0000112                               
##XYDATA= (X++(Y..Y))
 1000.1 26358882 38156484 42986176 48129133 46956072 47216453
 1009   43079997 34864794 28029757 26358882 38156484 42986176
 1018   48129133 46956072 47216453 43079997 34864794 28029757
 1026.9 23790759 20193057 15680656 11156177 8695966 6077378
 1035.9 6729676 7618197 4711042 7347077 9283839 11993695
 1044.9 13820398 16818823 20147154 21260088 22712457 25353995
 1053.8 25527536 26229229 26731474 26000791 26071656 27247270
 1062.8 26221042 25077240 28903030 24750820 28327251 25957570
 1071.7 24851483 25746715 26209363 25374128 24268306 23584333
 1080.7 24497148 26101183 25575854 24432857 24023764 22050091
 1089.7 24192878 26755766 24434470 24933489 22638770 23889009
 1098.6 24741424 23510918 24078390 21274447 22285644 20162186
 1107.6 19534046 18170529 17603190 18134825 18800145 21358334
 1116.5 24780482 28202631 31624645 35046932 38468947 41890424
 1125.5 45313245 40822587 45152183 50279301 59122909 64327870
 1134.5 71758164 77728166 84000165 90013112 99604312 107724485
 1143.4 116996243 126760583 138892528 157903119 178214299 199205951
 1152.4 224183871 253778880 288917081 327893909 368373976 405069103
 1161.3 435455996 457937466 463520923 447173204 419054590 382064184
 1170.3 334121612 287816495 238639120 194239895 157113922 123798395
 1179.3 97144104 76220904 61392525 49832358 37552776 31946502
 1188.2 26388814 21797896 25734769 30248727 34221493 45255534
 1197.2 52778437 65778765 81145351 102339674 120832183 143570016
 1206.1 159362069 171234977 178764591 172912698 163179226 145972513
 1215.1 129325478 113150905 96020699 80341388 66831030 56174143
 1224.1 48248589 42558423 37622166 32651545 31245749 29205653
 1233   26181043 24526675 22620918 22980893 20496924 20483771
 1242   20886557 14487460 11953430 13351979 12594991 9281155
 1250.9 11360188 12513118 11184363 10383083 10879688 13933142
 1259.9 14708919 16759362 19435664 22593136 28331275 33792131
 1268.9 34968145 38208428 49312933 57980715 66292816 75884016
 1277.8 82287545 85710097 88381030 86319444 85565138 80429973
 1286.8 73724454 67970537 56520422 53159614 44529414 39226068
 1295.7 32927498 28149347 27932449 18425140 14016356 14149232
 1304.7 16948074 15680656 14684761 15337059 13853953 16696416
 1313.7 16501129 15405509 16625280 15531674 15602810 14577387
 1322.6 12710418 11781632 10913243 11642045 9702599 10977667
 1331.6 8289286 6956504 6349840 7544378 10919954 10824659
 1340.5 8449005 10443481 8179227 10511931 11372267 13452642
 1349.5 10176387 13990854 14738448 13025830 15804137 15554491
 1358.5 17430183 15350480 12879532 13649942 9507983 10125384
 1367.4 10032775 10642123 14174733 12548014 8681202 8459743
 1376.4 11177652 8450347 10723996 11635334 10756208 11373609
 1385.3 12315818 14695497 16594544 14883402 17179061 19111126
 1394.3 16502471 15994725 15535702 12099728 10448850 10205915
 1403.3 8636910 7765837 7796707 6747124 6347155 6325681
 1412.2 3931236 1551556 12079 818728 3291018 1009316
 1421.2 1013343 3199750 1615980 3211830 7438345 5681436
 1430.1 8364448 8959033 14961249 11867531 10733391 17292610
 1439.1 21933726 23803913 20592890 27462823 27335853 26744356
 1448.1 27980369 28915515 25844695 25777319 26171781 23420588
 1457   21763404 20203123 17092760 20358411 16729163 17464544
 1466   15020305 16547702 17035047 20218691 21814406 18910470
 1474.9 14204261 15981304 18892082 22722251 23716672 21784341
 1483.9 28945884 33883930 31444123 37731149 48919678 48457967
 1492.9 53359597 61424743 67119598 75935016 83060640 99255346
 1501.8 117043219 134912973 150208420 171583943 200413911 225848170
 1510.8 259630773 291319578 321733315 364387709 403659816 456018152
 1519.8 504806296 560050313 615160112 672793205 735888959 796447997
 1528.7 866147264 928222963 991520043 1042173814 1073513653 1074063946
 1537.7 1023168584 957375053 852188620 746089506 636836275 541420892
 1546.6 454528335 387768437 326793324 278139397 237390895 202910361
 1555.6 171100759 147365691 128263821 110769890 101365252 82105008
 1564.6 76271904 67473932 67245762 59249072 57117691 52718039
 1573.5 49872624 48738484 48173426 48053973 47374830 44333455
 1582.5 42371999 38408814 41451801 37724841 35887670 38607188
 1591.4 34140690 35309997 28980674 31721550 28867126 26358882
 1600.4 27666966 24818199 24072753 24694852 20805894 29388390
 1609.4 25051201 28600424 30093515 26358882 24281328 24366019
 1618.3 26358882 25114283 26358882 27274918 22728830 22792716
 1627.3 23717614 26503571 27837425 28083850 31238638 26739256
 1636.2 28365327 29437178 30888850 29562237 27887891 27018698
 1645.2 30013574 31676992 31387752 31040667 28722672 27391152
 1654.2 26358882 29692048 31734572 30479902 33380617 31254744
 1663.1 31643841 30160397 28881220 26170443 26719390 29131256
 1672.1 25994885 31485060 26789049 32977295 36356358 29679573
 1681   31371647 35037937 32680941 34822651 31117570 34102843
 1690   32593831 31212866 34064993 25622026 28518632 29988572
 1699   31099450 32153868 29872567 31475128 32169033 32504040
 1707.9 30963397 31572567 32197217 32943335 30907131 30315085
 1716.9 29722745 26563162 26891726 27856080 27915540 25203403
 1725.8 25076835 27025139 26434581 28802822 26794418 30015389
 1734.8 28686968 24418898 28834591 27407392 30382165 25634244
 1743.8 26987559 26117428 25871538 22916467 21505839 28104248
 1752.7 22589780 19689604 21012453 19236619 22545892 19124279
 1761.7 18438427 21792394 20864681 21938960 19835768 18964024
 1770.6 21658982 19727722 17209396 18576939 23708219 22335304
 1779.6 19874288 18343400 23015117 25901336 20572354 25021539
 1788.6 22466166 18555332 20950178 20206478 28592668 21400344
 1797.5 20461759 20203659 21640326 22822915 23352405 22164311
 1806.5 17662648 27517989 28430558 24932551 25693565 27741188
 1815.4 28232964 26909579 24633783 25062609 26039581 25702157
 1824.4 28050024 33761660 26011662 29312932 30018328 28963631
 1833.4 22902641 30270616 28469012 23655874 29163228 28126527
 1842.3 22606825 29569630 22905996 23702313 22397045 19843419
 1851.3 21204923 21303572 26877100 22508580 22591928 23087190
 1860.2 20090512 23287042 17896321 21329207 18392927 22700377
 1869.2 24188985 23369990 22124716 17216241 20249696 20333312
 1878.2 19134211 23639767 23818949 23247852 24173146 22220549
 1887.1 20673824 23932092 22711648 23413073 24888660 18837993
 1896.1 30483539 30328815 24737264 27258006 19123206 22064719
 1905   22069954 30318772 30196527 24023493 24586536 23544740
 1914   29322218 27224724 29699011 32647253 28149212 21449467
 1923   26394987 28667563 25081400 27665091 25789936 18838126
 1931.9 23178459 21585295 25562033 17602250 21518186 18880942
 1940.9 22016000 21046412 21219285 23881493 20491019 19342385
 1949.8 20100848 21040907 18357092 13984143 18577208 16714668
 1958.8 18853026 15057885 21424100 24223614 13631152 19960322
 1967.8 20546720 18604187 22083913 18233209 23095377 21317532
 1976.7 19128844 19003080 26659530 26191110 26539404 29381086
 1985.7 20683621 23642048 25070392 25717992 29873386 27058828
 1994.6 29167334 32811397
##END= 
